390-395_56mA_5.72V
Integration time [ms]: 100.000
Averaging Nr. [scans]: 1
Smoothing Nr. [pixels]: 0
Data measured with spectrometer [name]: 1701237U1
Wave   ;Sample   ;Dark     ;Reference;Scope Corrected for Dark
[nm]   ;[counts] ;[counts] ;[counts] ;[counts] 

 173.88;   -8.999;    2.997;    0.000;-11.99552
 174.48;   33.001;   17.998;    0.000;15.00291
 175.09;   11.000;    3.999;    0.000; 7.00108
 175.69;   58.001;    9.998;    0.000;48.00283
 176.30;  -13.999;  -19.003;    0.000; 5.00464
 176.90;   12.000;  -17.001;    0.000;29.00160
 177.51;   -7.000;  -15.001;    0.000; 8.00097
 178.11;  -13.999;   -0.002;    0.000;-13.99670
 178.72;  -76.000;   -5.001;    0.000;-70.99817
 179.32;   -2.999;    5.997;    0.000;-8.99617
 179.93;    1.001;  -52.003;    0.000;53.00365
 180.54;  -45.000;   -2.001;    0.000;-42.99896
 181.14;  -39.999;  -10.003;    0.000;-29.99546
 181.75;   16.000;  -23.001;    0.000;39.00130
 182.35;  -27.000;  -75.001;    0.000;48.00094
 182.96;   13.000;   21.999;    0.000;-8.99801
 183.56;   -3.999;  -73.004;    0.000;69.00485
 184.17;  -13.999;    2.998;    0.000;-16.99734
 184.77;  -21.000;  -15.001;    0.000;-5.99900
 185.38;   21.001;    5.998;    0.000;15.00298
 185.98;   45.001;    0.998;    0.000;44.00312
 186.59;  -30.000;  -23.001;    0.000;-6.99820
 187.19;   -1.999;  -56.002;    0.000;54.00249
 187.80;  -49.999;  -58.003;    0.000; 8.00424
 188.40;  -36.998;  -39.005;    0.000; 2.00641
 189.01;  -10.999;  -44.002;    0.000;33.00311
 189.61;   20.001;    4.998;    0.000;15.00201
 190.21;   -4.999;   27.997;    0.000;-32.99572
 190.82;  -29.999;  -23.003;    0.000;-6.99621
 191.42;    6.001;    3.996;    0.000; 2.00484
 192.03;   33.001;  -56.004;    0.000;89.00510
 192.63;   -3.999;   25.996;    0.000;-29.99426
 193.24;    6.000;   -2.001;    0.000; 8.00143
 193.84;   25.002;   31.995;    0.000;-6.99310
 194.45;    2.001;    5.996;    0.000;-3.99418
 195.05;    1.001;  -14.003;    0.000;15.00381
 195.66;  -46.999;   -3.004;    0.000;-43.99463
 196.26;   43.002;  -21.005;    0.000;64.00712
 196.87;  -82.998;   17.995;    0.000;-100.99373
 197.47;   -8.999;   18.996;    0.000;-27.99491
 198.07;  -22.998;   -3.005;    0.000;-19.99308
 198.68;   27.002;   19.995;    0.000; 7.00733
 199.28;   -5.999;  -26.003;    0.000;20.00429
 199.89;   17.002;  -15.007;    0.000;32.00911
 200.49;  -67.998;  -12.005;    0.000;-55.99303
 201.10;  -28.999;   65.996;    0.000;-94.99456
 201.70;  -39.998;   -8.006;    0.000;-31.99251
 202.31;  -50.999;  -13.002;    0.000;-37.99672
 202.91;   -0.999;  -15.003;    0.000;14.00335
 203.51;    4.001;   19.996;    0.000;-15.99445
 204.12;  -28.000;  -21.001;    0.000;-6.99922
 204.72;   52.000;   39.999;    0.000;12.00199
 205.33;   41.001;  -22.002;    0.000;63.00329
 205.93;  -11.999;  -18.003;    0.000; 6.00407
 206.53;    1.001;  -44.003;    0.000;45.00454
 207.14;  -27.999;  -21.003;    0.000;-6.99563
 207.74;   11.001;  -38.003;    0.000;49.00415
 208.35;  -10.999;    6.996;    0.000;-17.99486
 208.95;    3.001;    2.997;    0.000; 0.00431
 209.55;   23.001;   25.997;    0.000;-2.99562
 210.16;  -56.999;  -14.004;    0.000;-42.99488
 210.76;   38.001;   22.996;    0.000;15.00484
 211.37;  -46.999;   -6.003;    0.000;-40.99537
 211.97;  -61.999;  -15.002;    0.000;-46.99699
 212.57;   30.002;   28.995;    0.000; 1.00677
 213.18;   24.001;   16.996;    0.000; 7.00544
 213.78;  -55.998;    9.995;    0.000;-65.99389
 214.38;   -8.999;  -73.003;    0.000;64.00426
 214.99;  -77.999;   -3.004;    0.000;-74.99456
 215.59;   -0.998;   -0.005;    0.000;-0.99361
 216.20;   -0.998;   12.995;    0.000;-13.99298
 216.80;  -21.998;   22.995;    0.000;-44.99337
 217.40;  -17.999;   11.996;    0.000;-29.99486
 218.01;  -64.998;   19.994;    0.000;-84.99254
 218.61;   -3.998;   -8.005;    0.000; 4.00601
 219.21;   46.001;   19.997;    0.000;26.00434
 219.82;    4.001;  -30.003;    0.000;34.00457
 220.42;   13.001;   -2.004;    0.000;15.00477
 221.02;  -13.998;    1.993;    0.000;-15.99121
 221.63;   12.002;   19.993;    0.000;-7.99043
 222.23;   -9.998;  -52.005;    0.000;42.00640
 222.83;   -3.999;  -33.004;    0.000;29.00480
 223.44;    5.001;    4.998;    0.000; 0.00329
 224.04;  -38.998;  -15.007;    0.000;-23.99033
 224.64;  -66.998;   37.995;    0.000;-104.99280
 225.25;    5.001;    7.996;    0.000;-2.99530
 225.85;  -30.999;  -46.003;    0.000;15.00372
 226.45;   37.002;   31.995;    0.000; 5.00642
 227.06;  -12.999;  -33.004;    0.000;20.00538
 227.66;  -36.999;  -17.003;    0.000;-19.99551
 228.26;  -24.999;  -36.004;    0.000;11.00588
 228.87;    9.001;  -15.004;    0.000;24.00598
 229.47;   11.001;   45.996;    0.000;-34.99492
 230.07;   22.002;  -17.005;    0.000;39.00633
 230.68;    6.001;   21.998;    0.000;-15.99710
 231.28;  -19.998;   11.995;    0.000;-31.99323
 231.88;   19.002;  -33.005;    0.000;52.00611
 232.48;   46.001;    6.997;    0.000;39.00340
 233.09;  -31.999;   -4.003;    0.000;-27.99609
 233.69;  -12.999;  -11.004;    0.000;-1.99507
 234.29;  -74.999;   31.996;    0.000;-106.99520
 234.90;  -13.998;    0.995;    0.000;-14.99337
 235.50;  -27.998;  -40.007;    0.000;12.00986
 236.10;  -59.999;  -14.003;    0.000;-45.99536
 236.70;  -59.998;   10.995;    0.000;-70.99369
 237.31;  -50.998;    1.995;    0.000;-52.99306
 237.91;   24.002;  -23.005;    0.000;47.00669
 238.51;   -7.999;    3.997;    0.000;-11.99604
 239.11;   -9.000;   27.000;    0.000;-35.99963
 239.72;    4.002;   28.994;    0.000;-24.99243
 240.32;  -34.999;  -51.002;    0.000;16.00237
 240.92;   -5.998;  -18.005;    0.000;12.00634
 241.53;  -34.998;  -18.006;    0.000;-16.99246
 242.13;   18.001;  -61.004;    0.000;79.00560
 242.73;  -12.999;  -47.003;    0.000;34.00457
 243.33;  -59.000;  -24.001;    0.000;-34.99848
 243.93;   32.002;  -61.005;    0.000;93.00672
 244.54;  -16.999;    4.996;    0.000;-21.99492
 245.14;  -11.999;  -28.004;    0.000;16.00555
 245.74;   14.002;  -42.005;    0.000;56.00649
 246.34;    5.001;  -26.004;    0.000;31.00599
 246.95;    8.002;  -21.005;    0.000;29.00701
 247.55;  -17.998;  -41.005;    0.000;23.00605
 248.15;    8.002;   33.994;    0.000;-25.99153
 248.75;   24.001;  -27.003;    0.000;51.00434
 249.36;   21.002;   12.994;    0.000; 8.00839
 249.96;   -8.999;    5.997;    0.000;-14.99614
 250.56;   -0.998;   40.995;    0.000;-41.99395
 251.16;   17.001;  -47.003;    0.000;64.00465
 251.76;   -5.999;   -2.004;    0.000;-3.99421
 252.37;  -54.999;   18.997;    0.000;-73.99591
 252.97;   38.001;    0.996;    0.000;37.00555
 253.57;   -7.999;   -5.004;    0.000;-2.99492
 254.17;  -14.998;   23.995;    0.000;-38.99317
 254.77;  -27.999;   14.997;    0.000;-42.99581
 255.38;   23.002;    2.995;    0.000;20.00688
 255.98;   -4.000;  -35.001;    0.000;31.00184
 256.58;   -3.999;    8.997;    0.000;-12.99583
 257.18;   -0.999;  -12.004;    0.000;11.00549
 257.78;  -23.999;  -39.004;    0.000;15.00525
 258.38;  -17.999;   29.996;    0.000;-47.99486
 258.99;  -43.999;   -8.003;    0.000;-35.99652
 259.59;  -22.999;   22.996;    0.000;-45.99533
 260.19;   10.002;   -0.005;    0.000;10.00628
 260.79;  -26.998;  -17.005;    0.000;-9.99389
 261.39;   33.002;   14.995;    0.000;18.00685
 261.99;  -46.998;  -14.005;    0.000;-32.99281
 262.60;  -14.998;    2.995;    0.000;-17.99321
 263.20;   -5.999;  -58.002;    0.000;52.00322
 263.80;    5.002;    0.993;    0.000; 4.00928
 264.40;  -48.999;  -28.004;    0.000;-20.99409
 265.00;    1.001;   50.996;    0.000;-49.99484
 265.60;  -38.999;  -82.003;    0.000;43.00463
 266.20;  -12.999;    0.997;    0.000;-13.99608
 266.81;   27.001;  -49.004;    0.000;76.00478
 267.41;  -27.998;  -14.005;    0.000;-13.99344
 268.01;  -24.999;  -10.003;    0.000;-14.99626
 268.61;  -18.998;    4.995;    0.000;-23.99322
 269.21;  -13.998;  -33.005;    0.000;19.00705
 269.81;  -57.999;  -49.002;    0.000;-8.99688
 270.41;  -56.999;   14.996;    0.000;-71.99494
 271.01;   14.002;  -31.005;    0.000;45.00619
 271.62;  -16.999;  -13.003;    0.000;-3.99651
 272.22;  -60.999;  -57.003;    0.000;-3.99598
 272.82;  -59.999;  -22.004;    0.000;-37.99413
 273.42;  -61.999;   12.996;    0.000;-74.99431
 274.02;  -11.999;  -11.004;    0.000;-0.99528
 274.62;    8.002;  -27.006;    0.000;35.00778
 275.22;  -21.999;  -24.003;    0.000; 2.00388
 275.82;  -23.998;   20.995;    0.000;-44.99332
 276.42;  -15.998;  -47.005;    0.000;31.00652
 277.02;  -43.999;   -0.003;    0.000;-43.99620
 277.63;  -34.998;   34.995;    0.000;-69.99383
 278.23;    9.002;   65.995;    0.000;-56.99387
 278.83;   -4.998;  -65.005;    0.000;60.00688
 279.43;   20.002;  -26.005;    0.000;46.00664
 280.03;  -50.999;    3.998;    0.000;-54.99796
 280.63;   -6.999;   18.996;    0.000;-25.99432
 281.23;   -4.999;  -33.004;    0.000;28.00547
 281.83;    6.002;   -9.006;    0.000;15.00764
 282.43;  175.001;  130.996;    0.000;44.00572
 283.03;   21.001;   -2.004;    0.000;23.00489
 283.63;  -38.998;    5.995;    0.000;-44.99391
 284.23;  -13.998;  -13.005;    0.000;-0.99304
 284.83;  -39.998;  -32.005;    0.000;-7.99292
 285.43;   12.001;  -63.004;    0.000;75.00496
 286.03;  -64.999;  -25.002;    0.000;-39.99707
 286.63;   13.002;  -41.005;    0.000;54.00612
 287.23;   -7.999;  -14.004;    0.000; 6.00504
 287.84;    6.001;  -28.003;    0.000;34.00413
 288.44;   61.001;  -59.003;    0.000;120.00457
 289.04;  -33.999;   -3.003;    0.000;-30.99657
 289.64;  -30.999;  -24.003;    0.000;-6.99548
 290.24;    0.003;  -25.008;    0.000;25.01026
 290.84;  -36.000;  -18.001;    0.000;-17.99869
 291.44;  -60.999;  -50.002;    0.000;-10.99678
 292.04;  -29.999;  -83.002;    0.000;53.00212
 292.64;  -10.999;  -32.003;    0.000;21.00418
 293.24;  -16.999;    7.998;    0.000;-24.99691
 293.84;  -33.998;  -23.005;    0.000;-10.99365
 294.44;  -25.998;    6.995;    0.000;-32.99393
 295.04;  -16.999;  -40.003;    0.000;23.00421
 295.64;  -58.999;  -64.002;    0.000; 5.00248
 296.24;    2.001;  -40.002;    0.000;42.00259
 296.84;    2.001;  -15.003;    0.000;17.00343
 297.44;   -6.999;  -39.004;    0.000;32.00518
 298.04;  -26.000;  -68.001;    0.000;42.00126
 298.64;  -38.999;  -24.002;    0.000;-14.99723
 299.24;    4.001;  -12.004;    0.000;16.00586
 299.84;  -24.999;  -40.002;    0.000;15.00279
 300.44;  -50.999;   14.997;    0.000;-65.99559
 301.04;   17.000;   33.999;    0.000;-16.99828
 301.64;   -8.998;  -46.005;    0.000;37.00621
 302.24;  -23.999;    7.996;    0.000;-31.99472
 302.83;   10.000;    9.999;    0.000; 0.00145
 303.43;   -2.999;    6.996;    0.000;-9.99410
 304.03;  -68.998;  -21.006;    0.000;-47.99263
 304.63;   -9.999;   24.997;    0.000;-34.99619
 305.23;  -24.999;  -46.003;    0.000;21.00438
 305.83;  -44.999;    0.996;    0.000;-45.99514
 306.43;   -0.999;   11.996;    0.000;-12.99504
 307.03;   38.002;   -3.005;    0.000;41.00602
 307.63;  -27.999;  -15.004;    0.000;-12.99519
 308.23;   32.001;   22.996;    0.000; 9.00575
 308.83;  -69.998;    8.995;    0.000;-78.99375
 309.43;   -9.998;   17.994;    0.000;-27.99216
 310.03;  -33.998;  -41.006;    0.000; 7.00820
 310.63;   16.002;   -2.005;    0.000;18.00697
 311.23;  -70.998;  -10.006;    0.000;-60.99162
 311.83;  -10.999;   19.996;    0.000;-30.99496
 312.43;  -45.999;   -3.003;    0.000;-42.99654
 313.02;  -24.998;   -9.005;    0.000;-15.99348
 313.62;  -24.999;  -51.003;    0.000;26.00449
 314.22;  -92.999;  -39.004;    0.000;-53.99471
 314.82;  -52.998;  -44.005;    0.000;-8.99331
 315.42;   37.002;    9.994;    0.000;27.00808
 316.02;  -43.998;   37.995;    0.000;-81.99311
 316.62;   38.002;    1.993;    0.000;36.00922
 317.22;   18.002;   -7.006;    0.000;25.00834
 317.82;  -29.998;  -32.006;    0.000; 2.00755
 318.42;    5.001;  -39.003;    0.000;44.00453
 319.01;   20.002;   14.994;    0.000; 5.00777
 319.61;  -27.998;    8.994;    0.000;-36.99162
 320.21;   -6.998;    3.994;    0.000;-10.99237
 320.81;   -7.997;   23.992;    0.000;-31.98925
 321.41;  -24.999;  -16.004;    0.000;-8.99514
 322.01;  -46.998;  -28.005;    0.000;-18.99322
 322.61;   -3.998;  -42.007;    0.000;38.00976
 323.21;  -20.998;  -44.006;    0.000;23.00813
 323.80;  -51.998;   -6.006;    0.000;-45.99221
 324.40;  -33.997;  -18.009;    0.000;-15.98810
 325.00;  -34.997;  -30.008;    0.000;-4.98989
 325.60;   31.002;  -51.007;    0.000;82.00989
 326.20;  -17.998;   -2.007;    0.000;-15.99105
 326.80;  -38.997;   14.992;    0.000;-53.98973
 327.40;   -4.997;  -19.009;    0.000;14.01242
 327.99;   39.004;  -21.011;    0.000;60.01527
 328.59;   -1.996;   21.988;    0.000;-23.98406
 329.19;  -15.996;   -9.013;    0.000;-6.98240
 329.79;   13.004;   32.987;    0.000;-19.98271
 330.39;  -23.995;   20.986;    0.000;-44.98170
 330.99;  -27.996;  -19.013;    0.000;-8.98265
 331.58;  -33.995;  -19.015;    0.000;-14.98014
 332.18;   -3.994;  -29.017;    0.000;25.02219
 332.78;  -32.994;   -9.017;    0.000;-23.97716
 333.38;  -31.994;  -12.019;    0.000;-19.97455
 333.98;  -66.994;   -9.018;    0.000;-57.97615
 334.57;   21.006;  -52.019;    0.000;73.02505
 335.17;  -40.994;  -22.018;    0.000;-18.97636
 335.77;    6.006;   36.983;    0.000;-30.97750
 336.37;  -32.994;  -18.019;    0.000;-14.97511
 336.97;  -18.995;  -19.015;    0.000; 0.02052
 337.56;  -36.995;   29.984;    0.000;-66.97829
 338.16;   10.005;    8.984;    0.000; 1.02072
 338.76;   14.004;  -19.012;    0.000;33.01654
 339.36;  -29.995;   14.986;    0.000;-44.98144
 339.96;  -48.996;   10.987;    0.000;-59.98237
 340.55;    0.004;   52.987;    0.000;-52.98261
 341.15;   20.004;    6.987;    0.000;13.01769
 341.75;  -24.995;   15.985;    0.000;-40.97980
 342.35;  -55.995;    1.985;    0.000;-57.97966
 342.94;  -41.994;   10.981;    0.000;-52.97454
 343.54;  -44.995;  -47.016;    0.000; 2.02165
 344.14;  -53.994;   38.983;    0.000;-92.97795
 344.74;   48.006;   11.982;    0.000;36.02379
 345.33;  -41.995;  -49.016;    0.000; 7.02087
 345.93;   -5.995;  -42.016;    0.000;36.02078
 346.53;  -27.995;  -28.014;    0.000; 0.01852
 347.13;   32.005;   -8.015;    0.000;40.01949
 347.72;   -9.994;    1.983;    0.000;-11.97758
 348.32;   14.005;  -36.014;    0.000;50.01900
 348.92;  -16.995;  -29.015;    0.000;12.02024
 349.52;  -38.995;  -12.016;    0.000;-26.97912
 350.11;  -37.995;   11.984;    0.000;-49.97881
 350.71;  -51.995;  -17.014;    0.000;-34.98068
 351.31;  -30.995;  -60.014;    0.000;29.01840
 351.91;  -27.995;  -36.014;    0.000; 8.01862
 352.50;   65.005;   -6.014;    0.000;71.01891
 353.10;  -27.995;  -58.015;    0.000;30.01943
 353.70;  -35.996;  -19.012;    0.000;-16.98349
 354.29;   35.005;   27.985;    0.000; 7.01968
 354.89;    8.006;    9.983;    0.000;-1.97781
 355.49;   -2.996;  -29.013;    0.000;26.01705
 356.09;    8.005;   -7.016;    0.000;15.02143
 356.68;  -12.995;  -73.014;    0.000;60.01878
 357.28;   28.006;   29.983;    0.000;-1.97723
 357.88;  -20.994;  -45.017;    0.000;24.02226
 358.47;  -26.995;    2.985;    0.000;-29.98001
 359.07;   29.005;    4.986;    0.000;24.01876
 359.67;   -9.995;   14.986;    0.000;-24.98083
 360.26;    3.005;  -41.015;    0.000;44.01945
 360.86;   26.005;  -41.016;    0.000;67.02104
 361.46;  -28.996;  -70.013;    0.000;41.01697
 362.05;  -34.995;   -0.016;    0.000;-34.97905
 362.65;  -41.996;   -0.013;    0.000;-41.98277
 363.25;  -37.996;   54.987;    0.000;-92.98274
 363.84;  -39.996;  -16.013;    0.000;-23.98297
 364.44;    4.005;    6.986;    0.000;-2.98162
 365.04;    7.005;  -46.014;    0.000;53.01863
 365.63;   -8.995;  -16.014;    0.000; 7.01810
 366.23;   -5.996;  -12.013;    0.000; 6.01693
 366.83;   34.005;  -34.014;    0.000;68.01807
 367.42;   13.005;  -36.015;    0.000;49.01999
 368.02;   26.005;  -13.014;    0.000;39.01818
 368.62;  -23.995;  -58.015;    0.000;34.02038
 369.21;    7.005;   17.985;    0.000;-10.97995
 369.81;   18.005;  -29.015;    0.000;47.01960
 370.41;   25.004;   -8.011;    0.000;33.01474
 371.00;  -17.994;  -50.017;    0.000;32.02239
 371.60;   50.005;    4.984;    0.000;45.02154
 372.19;   40.005;   12.985;    0.000;27.01947
 372.79;   61.004;   16.988;    0.000;44.01663
 373.39;   21.004;  -20.013;    0.000;41.01788
 373.98;   43.005;   -9.015;    0.000;52.02037
 374.58;   72.005;   16.986;    0.000;55.01871
 375.17;  110.006;  -10.018;    0.000;120.02361
 375.77;   85.005;  -25.015;    0.000;110.02049
 376.37;  157.005;   49.984;    0.000;107.02081
 376.96;  194.005;   -2.015;    0.000;196.02045
 377.56;  248.005;  -24.014;    0.000;272.01834
 378.15;  292.005;  -63.014;    0.000;355.01882
 378.75;  373.005;   14.985;    0.000;358.02058
 379.35;  419.005;  -13.015;    0.000;432.02012
 379.94;  501.005;   34.984;    0.000;466.02123
 380.54;  709.006;  -18.017;    0.000;727.02204
 381.13;  962.005;  -32.015;    0.000;994.02063
 381.73; 1183.004;  -10.013;    0.000;1193.01710
 382.32; 1446.004;    4.988;    0.000;1441.01570
 382.92; 1769.005;  -60.015;    0.000;1829.02021
 383.52; 2095.005;   -3.014;    0.000;2098.01883
 384.11; 2506.005;   17.985;    0.000;2488.02029
 384.71; 3022.006;  -49.017;    0.000;3071.02215
 385.30; 3706.005;  -29.016;    0.000;3735.02141
 385.90; 4421.005;  -72.015;    0.000;4493.02005
 386.49; 5250.005;  -51.016;    0.000;5301.02178
 387.09; 6053.006;   14.983;    0.000;6038.02258
 387.68; 6838.005;  -56.014;    0.000;6894.01932
 388.28; 7687.005;   -3.015;    0.000;7690.01950
 388.87; 8621.004;  -44.013;    0.000;8665.01681
 389.47; 9423.005;  -14.016;    0.000;9437.02185
 390.07;10533.005;  -58.015;    0.000;10591.02020
 390.66;10761.005;  -22.014;    0.000;10783.01860
 391.26;11386.005;  -51.016;    0.000;11437.02122
 391.85;11725.005;   21.985;    0.000;11703.02045
 392.45;11542.005;  -39.016;    0.000;11581.02091
 393.04;11719.004;  -17.013;    0.000;11736.01782
 393.64;11471.005;  -27.014;    0.000;11498.01872
 394.23;11401.005;  -30.015;    0.000;11431.02002
 394.83;10981.005;  -39.014;    0.000;11020.01871
 395.42;10343.006;   19.983;    0.000;10323.02332
 396.02; 9790.005;  -62.014;    0.000;9852.01816
 396.61; 9212.006;    3.983;    0.000;9208.02238
 397.21; 8465.005;   14.985;    0.000;8450.02015
 397.80; 9115.005;  567.985;    0.000;8547.01963
 398.40; 7234.005;   17.985;    0.000;7216.02009
 398.99; 6637.005;   -3.015;    0.000;6640.01999
 399.59; 6285.005;  -10.016;    0.000;6295.02174
 400.18; 5677.005;  -15.015;    0.000;5692.01971
 400.78; 5268.005;  -66.015;    0.000;5334.01940
 401.37; 4715.004;  -59.013;    0.000;4774.01695
 401.96; 4267.005;  -29.016;    0.000;4296.02080
 402.56; 4035.005;  -63.015;    0.000;4098.01941
 403.15; 3817.005;  -17.015;    0.000;3834.01963
 403.75; 3348.004;  -27.013;    0.000;3375.01789
 404.34; 3182.005;  -27.015;    0.000;3209.02057
 404.94; 2956.005;  -61.015;    0.000;3017.02012
 405.53; 2652.005;  -51.016;    0.000;2703.02108
 406.13; 2379.005;  -41.016;    0.000;2420.02150
 406.72; 2237.004;  -31.013;    0.000;2268.01742
 407.32; 1981.005;  -38.015;    0.000;2019.02003
 407.91; 1761.005;  -82.015;    0.000;1843.01939
 408.50; 1764.004;  -40.012;    0.000;1804.01621
 409.10; 1524.005;  -18.015;    0.000;1542.01937
 409.69; 1465.004;  -36.013;    0.000;1501.01769
 410.29; 1269.005;   -3.014;    0.000;1272.01814
 410.88; 1183.005;   -7.014;    0.000;1190.01922
 411.47; 1099.004;  -28.013;    0.000;1127.01797
 412.07;  984.005;   -5.014;    0.000;989.01803
 412.66;  885.005;  -36.014;    0.000;921.01817
 413.26;  801.004;  -32.013;    0.000;833.01719
 413.85;  722.004;  -45.013;    0.000;767.01684
 414.45;  746.005;   -4.014;    0.000;750.01906
 415.04;  669.004;   -6.013;    0.000;675.01703
 415.63;  629.005;   -4.014;    0.000;633.01909
 416.23;  621.005;   -2.014;    0.000;623.01913
 416.82;  531.005;  -25.015;    0.000;556.01979
 417.41;  474.004;   19.988;    0.000;454.01593
 418.01;  513.005;    8.986;    0.000;504.01864
 418.60;  441.005;   -0.015;    0.000;441.01997
 419.20;  351.004;   42.987;    0.000;308.01792
 419.79;  348.004;  -46.013;    0.000;394.01686
 420.38;  299.004;  -18.013;    0.000;317.01759
 420.98;  229.004;  -43.013;    0.000;272.01681
 421.57;  297.005;  -20.014;    0.000;317.01829
 422.16;  206.004;  -10.012;    0.000;216.01574
 422.76;  216.004;  -27.012;    0.000;243.01555
 423.35;  200.004;   10.987;    0.000;189.01747
 423.94;  137.004;   27.988;    0.000;109.01595
 424.54;   81.004;    5.989;    0.000;75.01513
 425.13;  105.005;    2.986;    0.000;102.01888
 425.73;   85.004;  -39.012;    0.000;124.01655
 426.32;  122.004;  -37.013;    0.000;159.01762
 426.91;   51.004;  -48.011;    0.000;99.01495
 427.51;  143.004;  -29.011;    0.000;172.01414
 428.10;  115.004;  -68.012;    0.000;183.01568
 428.69;  101.004;   -6.012;    0.000;107.01583
 429.28;    6.005;  -40.014;    0.000;46.01877
 429.88;   62.004;    9.987;    0.000;52.01720
 430.47;   44.004;  -18.011;    0.000;62.01425
 431.06;   48.004;  -32.012;    0.000;80.01572
 431.66;   13.004;  -37.011;    0.000;50.01495
 432.25;   87.004;  -36.012;    0.000;123.01570
 432.84;   70.003;  -33.010;    0.000;103.01368
 433.44;   54.004;   12.987;    0.000;41.01747
 434.03;  -46.997;  -66.010;    0.000;19.01380
 434.62;   67.004;  -27.012;    0.000;94.01557
 435.22;   34.003;  -34.009;    0.000;68.01139
 435.81;   49.004;    4.989;    0.000;44.01488
 436.40;    6.003;  -35.010;    0.000;41.01307
 436.99;   33.004;   -7.012;    0.000;40.01553
 437.59;   52.004;  -25.011;    0.000;77.01485
 438.18;   27.003;   -7.010;    0.000;34.01342
 438.77;    7.003;  -49.010;    0.000;56.01306
 439.36;    3.004;  -34.012;    0.000;37.01540
 439.96;   -2.997;  -49.009;    0.000;46.01163
 440.55;  -21.996;  -45.011;    0.000;23.01427
 441.14;    8.003;  -29.010;    0.000;37.01316
 441.73;   30.004;    4.987;    0.000;25.01757
 442.33;  -45.996;  -53.012;    0.000; 7.01615
 442.92;   21.003;   20.991;    0.000; 0.01227
 443.51;   -9.996;  -34.011;    0.000;24.01433
 444.10;   40.004;   -9.011;    0.000;49.01523
 444.70;   46.003;   10.991;    0.000;35.01212
 445.29;  -18.996;    0.988;    0.000;-19.98390
 445.88;  -44.996;  -39.011;    0.000;-5.98520
 446.47;  -20.997;    2.991;    0.000;-23.98792
 447.07;  -14.997;  -48.010;    0.000;33.01270
 447.66;    3.004;  -41.011;    0.000;44.01523
 448.25;  -50.997;  -41.010;    0.000;-9.98657
 448.84;    4.003;  -16.010;    0.000;20.01382
 449.43;    2.003;  -20.008;    0.000;22.01033
 450.03;   29.004;    3.987;    0.000;25.01709
 450.62;   30.004;  -26.012;    0.000;56.01557
 451.21;   -8.996;   24.988;    0.000;-33.98366
 451.80;   25.003;  -34.010;    0.000;59.01361
 452.39;  -62.997;    3.991;    0.000;-66.98734
 452.99;  -38.997;  -50.009;    0.000;11.01160
 453.58;   33.003;   24.991;    0.000; 8.01199
 454.17;  -51.998;  -21.007;    0.000;-30.99071
 454.76;  -40.997;  -17.008;    0.000;-23.98944
 455.35;  -10.997;   11.991;    0.000;-22.98824
 455.95;   23.003;  -45.010;    0.000;68.01357
 456.54;   37.003;   -5.008;    0.000;42.01048
 457.13;  -35.997;   28.990;    0.000;-64.98677
 457.72;  -71.998;  -18.007;    0.000;-53.99040
 458.31;  -18.997;  -48.008;    0.000;29.01011
 458.90;   -9.997;  -66.010;    0.000;56.01270
 459.50;  -16.997;  -23.010;    0.000; 6.01328
 460.09;  -12.996; -103.011;    0.000;90.01416
 460.68;  -11.997;  -65.009;    0.000;53.01221
 461.27;    9.003;  -32.010;    0.000;41.01269
 461.86;   41.003;  -61.009;    0.000;102.01148
 462.45;   -9.998;  -45.005;    0.000;35.00721
 463.04;   -3.997;  -10.010;    0.000; 6.01300
 463.64;  -24.998;  -44.007;    0.000;19.00868
 464.23;  -28.997;  -34.009;    0.000; 5.01250
 464.82;  -16.997;  -32.008;    0.000;15.01120
 465.41;    1.002;    8.995;    0.000;-7.99289
 466.00;  -10.997;  -13.008;    0.000; 2.01114
 466.59;   28.002;   -0.006;    0.000;28.00791
 467.18;  -21.998;    4.993;    0.000;-26.99106
 467.77;   10.003;   -2.008;    0.000;12.01047
 468.37;  -64.997;    8.991;    0.000;-73.98735
 468.96;   13.003;  -51.010;    0.000;64.01269
 469.55;   33.003;  -52.009;    0.000;85.01137
 470.14;   -2.997;    5.991;    0.000;-8.98747
 470.73;    4.003;  -27.010;    0.000;31.01377
 471.32;   12.003;  -62.008;    0.000;74.01053
 471.91;  -16.998;  -33.007;    0.000;16.00982
 472.50;   25.004;  -48.011;    0.000;73.01418
 473.09;  -42.998;  -57.006;    0.000;14.00787
 473.68;   88.003;    9.990;    0.000;78.01359
 474.27;   33.002;  -75.006;    0.000;108.00850
 474.86;  -33.997;  -13.008;    0.000;-20.98900
 475.46;  -84.998;  -64.007;    0.000;-20.99044
 476.05;    1.002;   -3.007;    0.000; 4.00965
 476.64;  -34.998;  -73.007;    0.000;38.00918
 477.23;  -32.997;  -28.008;    0.000;-4.98953
 477.82;  -65.998;  -56.007;    0.000;-9.99040
 478.41;  -33.998;  -34.007;    0.000; 0.00952
 479.00;    5.003;  -45.008;    0.000;50.01043
 479.59;  -32.997;  -13.009;    0.000;-19.98791
 480.18;  -51.998;  -32.006;    0.000;-19.99145
 480.77;  -16.998;    3.993;    0.000;-20.99132
 481.36;  -13.998;  -81.006;    0.000;67.00860
 481.95;  -58.997;  -11.008;    0.000;-47.98931
 482.54;   -9.997;  -72.010;    0.000;62.01290
 483.13;  -69.997;    5.992;    0.000;-75.98907
 483.72;  -41.998;  -40.006;    0.000;-1.99201
 484.31;   17.002;  -23.007;    0.000;40.00941
 484.90;  -34.998;  -65.007;    0.000;30.00908
 485.49;  -16.998;  -12.005;    0.000;-4.99337
 486.08;  -27.998;  -45.006;    0.000;17.00814
 486.67;   -0.998;  -36.006;    0.000;35.00736
 487.26;   15.002;  -33.006;    0.000;48.00756
 487.85;    3.002;  -47.007;    0.000;50.00923
 488.44;  -61.997;   -0.008;    0.000;-61.98910
 489.03;  -19.998;  -59.006;    0.000;39.00849
 489.62;  -61.998;   -8.006;    0.000;-53.99257
 490.21;   28.002;  -29.007;    0.000;57.00875
 490.80;    0.002;  -47.006;    0.000;47.00765
 491.39;  -52.998;  -36.007;    0.000;-16.99122
 491.98;   -2.998;  -55.006;    0.000;52.00798
 492.57;  -36.998;    7.995;    0.000;-44.99386
 493.16;  -44.997;  -44.008;    0.000;-0.98991
 493.75;  -29.998;   37.993;    0.000;-67.99010
 494.34;   -9.998;  -36.007;    0.000;26.00926
 494.93;   -4.998;   -2.005;    0.000;-2.99315
 495.52;   38.003;  -30.008;    0.000;68.01010
 496.11;   30.002;  -20.007;    0.000;50.00975
 496.70;   20.003;  -59.009;    0.000;79.01234
 497.29;    5.002;  -42.007;    0.000;47.00951
 497.88;    2.002;  -65.006;    0.000;67.00866
 498.47;   23.002;  -29.006;    0.000;52.00842
 499.06;   -5.997;    5.992;    0.000;-11.98994
 499.64;   -5.998;  -14.006;    0.000; 8.00803
 500.23;  -28.998;  -31.007;    0.000; 2.00934
 500.82;  -10.998;  -41.007;    0.000;30.00899
 501.41;   14.003;  -46.008;    0.000;60.01097
 502.00;  -12.998;   26.993;    0.000;-39.99005
 502.59;   18.002;  -39.007;    0.000;57.00875
 503.18;  -35.998;  -60.007;    0.000;24.00915
 503.77;   -2.998;    3.993;    0.000;-6.99089
 504.36;  -20.998;   -9.006;    0.000;-11.99144
 504.95;  -47.998;  -26.007;    0.000;-21.99110
 505.54;   29.002;  -20.007;    0.000;49.00943
 506.12;   23.002;  -30.007;    0.000;53.00908
 506.71;   35.002;  -30.007;    0.000;65.00906
 507.30;   14.003;  -34.009;    0.000;48.01143
 507.89;  -19.997;   -3.009;    0.000;-16.98863
 508.48;  -22.998;   33.994;    0.000;-56.99174
 509.07;   34.003;   -9.009;    0.000;43.01245
 509.66;  -23.998;  -47.006;    0.000;23.00801
 510.25;   -6.997;   42.992;    0.000;-49.98880
 510.84;  -14.997;  -55.008;    0.000;40.01001
 511.42;   17.002;  -17.007;    0.000;34.00918
 512.01;   36.001;  -58.004;    0.000;94.00476
 512.60;  -29.998;  -20.007;    0.000;-9.99019
 513.19;  -16.997;    1.992;    0.000;-18.98991
 513.78;  -10.997;  -62.008;    0.000;51.01054
 514.37;  -14.998;  -18.006;    0.000; 3.00797
 514.95;  -23.998;  -29.005;    0.000; 5.00648
 515.54;   36.002;  -38.007;    0.000;74.00868
 516.13;  -15.998;  -35.007;    0.000;19.00981
 516.72;  -50.998;  -25.006;    0.000;-25.99179
 517.31;  -44.998;  -73.006;    0.000;28.00801
 517.90;    1.002;   35.994;    0.000;-34.99246
 518.48;   -3.998;  -13.006;    0.000; 9.00837
 519.07;    7.003;  -15.008;    0.000;22.01031
 519.66;   13.002;    6.995;    0.000; 6.00703
 520.25;   16.002;  -16.006;    0.000;32.00765
 520.84;   15.002;   -8.007;    0.000;23.00925
 521.43;   -2.998;   -6.005;    0.000; 3.00730
 522.01;   26.002;  -14.006;    0.000;40.00745
 522.60;  -10.998;    3.994;    0.000;-14.99143
 523.19;  -11.998;  -14.006;    0.000; 2.00812
 523.78;   -1.998;  -46.007;    0.000;44.00935
 524.37;    7.003;  -29.008;    0.000;36.01050
 524.95;  -21.998;  -35.005;    0.000;13.00690
 525.54;  -16.998;   -8.007;    0.000;-8.99058
 526.13;   -2.998;  -27.007;    0.000;24.00887
 526.72;   31.001;    2.996;    0.000;28.00535
 527.30;  -65.998;  -32.005;    0.000;-33.99274
 527.89;   -0.998;  -26.007;    0.000;25.00955
 528.48;  -17.998;  -26.005;    0.000; 8.00695
 529.07;   49.002;  -32.007;    0.000;81.00914
 529.65;  -51.998;  -56.005;    0.000; 4.00629
 530.24;  -18.998;  -14.007;    0.000;-4.99080
 530.83;  -11.998;  -55.005;    0.000;43.00660
 531.42;  -26.998;    4.994;    0.000;-31.99266
 532.00;  -28.998;    1.994;    0.000;-30.99165
 532.59;  -11.999;  -64.004;    0.000;52.00551
 533.18;  -14.999;  -69.004;    0.000;54.00564
 533.77;   20.002;   15.993;    0.000; 4.00867
 534.35;   55.002;  -67.006;    0.000;122.00749
 534.94;  -19.998;    0.995;    0.000;-20.99272
 535.53;    9.001;  -26.004;    0.000;35.00528
 536.12;    5.002;   18.993;    0.000;-13.99040
 536.70;   41.001;  -86.004;    0.000;127.00488
 537.29;   14.002;  -20.005;    0.000;34.00644
 537.88;    7.002;  -43.005;    0.000;50.00637
 538.46;   -8.998;  -39.006;    0.000;30.00789
 539.05;  -18.998;  -42.005;    0.000;23.00626
 539.64;   11.001;   14.996;    0.000;-3.99493
 540.23;   18.002;   29.995;    0.000;-11.99293
 540.81;   18.001;  -38.004;    0.000;56.00567
 541.40;  -13.998;  -23.007;    0.000; 9.00918
 541.99;  -22.998;   -1.005;    0.000;-21.99293
 542.57;   -3.998;  -48.005;    0.000;44.00639
 543.16;    5.002;  -25.006;    0.000;30.00821
 543.75;  -25.999;  -37.003;    0.000;11.00420
 544.33;   15.002;  -18.005;    0.000;33.00650
 544.92;    1.001;  -14.003;    0.000;15.00436
 545.51;   -5.998;   27.995;    0.000;-33.99319
 546.09;   -4.998;  -14.006;    0.000; 9.00804
 546.68;   -0.998;   24.994;    0.000;-25.99224
 547.27;    6.001;  -33.004;    0.000;39.00511
 547.85;    5.001;  -29.004;    0.000;34.00577
 548.44;  -15.999;  -80.004;    0.000;64.00486
 549.03;   -5.999;  -17.003;    0.000;11.00460
 549.61;   -3.998;  -73.006;    0.000;69.00801
 550.20;    7.001;  -23.004;    0.000;30.00558
 550.78;   41.002;  -42.005;    0.000;83.00691
 551.37;  -17.999;  -44.002;    0.000;26.00288
 551.96;  -41.999;  -24.003;    0.000;-17.99560
 552.54;    8.002;  -25.007;    0.000;33.00985
 553.13;   30.002;  -25.006;    0.000;55.00760
 553.72;  -32.998;  -33.005;    0.000; 0.00644
 554.30;   -9.999;  -78.002;    0.000;68.00305
 554.89;   25.001;  -34.002;    0.000;59.00323
 555.47;   -0.999;   -0.004;    0.000;-0.99434
 556.06;   21.002;   30.995;    0.000;-9.99280
 556.65;    0.001;  -88.004;    0.000;88.00598
 557.23;   17.002;  -63.005;    0.000;80.00627
 557.82;   -8.999;  -71.003;    0.000;62.00463
 558.40;   58.001;   -6.004;    0.000;64.00569
 558.99;   51.002;  -46.007;    0.000;97.00966
 559.58;   -1.998;    7.994;    0.000;-9.99239
 560.16;   57.002;   24.993;    0.000;32.00942
 560.75;   58.002;  -18.006;    0.000;76.00820
 561.33;   -3.999;  -39.004;    0.000;35.00575
 561.92;   22.002;  -55.006;    0.000;77.00770
 562.50;   22.001;  -12.004;    0.000;34.00524
 563.09;   49.002;  -62.005;    0.000;111.00633
 563.68;    2.001;   -7.004;    0.000; 9.00588
 564.26;   -7.998;   -6.005;    0.000;-1.99311
 564.85;  -17.998;  -39.005;    0.000;21.00621
 565.43;  -10.998;   -6.005;    0.000;-4.99293
 566.02;   29.002;  -39.005;    0.000;68.00663
 566.60;   27.001;  -28.004;    0.000;55.00497
 567.19;   -0.998;  -31.005;    0.000;30.00713
 567.77;   13.001;   -0.003;    0.000;13.00351
 568.36;  -32.999;  -49.003;    0.000;16.00412
 568.94;  -26.999;  -42.004;    0.000;15.00541
 569.53;  -29.999;  -20.004;    0.000;-9.99417
 570.11;  -45.999;   25.998;    0.000;-71.99675
 570.70;   13.001;  -74.004;    0.000;87.00539
 571.28;    8.002;  -11.007;    0.000;19.00889
 571.87;  -18.999;  -65.002;    0.000;46.00326
 572.45;   41.001;   -4.003;    0.000;45.00465
 573.04;  -17.998;   -3.006;    0.000;-14.99175
 573.62;   25.001;  -65.004;    0.000;90.00526
 574.21;   27.001;   -9.004;    0.000;36.00589
 574.79;   11.002;   28.993;    0.000;-17.99069
 575.38;    1.001;  -32.004;    0.000;33.00536
 575.96;   55.001;  -42.003;    0.000;97.00339
 576.55;  -18.999;  -64.003;    0.000;45.00448
 577.13;   24.001;  -43.003;    0.000;67.00368
 577.72;   12.001;  -35.004;    0.000;47.00490
 578.30;   21.002;    5.995;    0.000;15.00671
 578.89;    4.001;  -71.002;    0.000;75.00309
 579.47;    7.002;  -84.005;    0.000;91.00649
 580.06;  -30.998;  -27.006;    0.000;-3.99214
 580.64;  -27.999;  -20.004;    0.000;-7.99480
 581.23;   -0.999;  -27.004;    0.000;26.00526
 581.81;   42.002;  -18.005;    0.000;60.00629
 582.39;   -7.999;  -46.004;    0.000;38.00503
 582.98;  -26.998;  -32.006;    0.000; 5.00793
 583.56;   -0.998;  -42.006;    0.000;41.00865
 584.15;   44.002;  -10.005;    0.000;54.00679
 584.73;   70.002;  -25.006;    0.000;95.00843
 585.32;    0.002;  -15.005;    0.000;15.00673
 585.90;   43.002;  -52.006;    0.000;95.00832
 586.48;   24.001;  -63.004;    0.000;87.00592
 587.07;  -22.999;  -19.004;    0.000;-3.99433
 587.65;   75.001;  -39.004;    0.000;114.00571
 588.24;  -20.999;  -37.004;    0.000;16.00509
 588.82;   40.001;   43.996;    0.000;-3.99450
 589.41;  181.001;   20.996;    0.000;160.00467
 589.99;   21.002;  -10.005;    0.000;31.00719
 590.57;  -31.999;  -59.003;    0.000;27.00373
 591.16;   32.002;  -19.006;    0.000;51.00747
 591.74;   -6.999;  -16.004;    0.000; 9.00536
 592.32;   41.001;   -8.003;    0.000;49.00448
 592.91;  -12.998;  -55.006;    0.000;42.00766
 593.49;   -1.999;   -4.003;    0.000; 2.00435
 594.08;  -16.998;  -45.005;    0.000;28.00698
 594.66;    7.001;  -26.003;    0.000;33.00455
 595.24;   -2.999;   -4.003;    0.000; 1.00418
 595.83;    6.002;  -44.005;    0.000;50.00617
 596.41;  -23.999;  -46.002;    0.000;22.00258
 596.99;   38.001;    6.997;    0.000;31.00409
 597.58;   40.001;  -67.004;    0.000;107.00476
 598.16;  -48.998;  -76.006;    0.000;27.00844
 598.74;   30.001;   -8.004;    0.000;38.00508
 599.33;   20.002;  -49.005;    0.000;69.00653
 599.91;   24.002;   -8.005;    0.000;32.00700
 600.49;   24.002;  -10.006;    0.000;34.00775
 601.08;   18.001;    5.997;    0.000;12.00434
 601.66;   -6.999;   -8.003;    0.000; 1.00455
 602.24;  -38.999;  -44.003;    0.000; 5.00381
 602.83;   26.001;  -56.003;    0.000;82.00398
 603.41;   29.001;  -57.003;    0.000;86.00444
 603.99;   17.003;  -15.008;    0.000;32.01091
 604.58;   15.001;  -44.004;    0.000;59.00516
 605.16;    3.002;    3.995;    0.000;-0.99368
 605.74;   22.001;  -40.004;    0.000;62.00536
 606.33;   11.001;   18.996;    0.000;-7.99520
 606.91;    1.002;  -23.005;    0.000;24.00711
 607.49;  -15.998;  -22.005;    0.000; 6.00636
 608.07;  -21.999;  -38.003;    0.000;16.00424
 608.66;  -18.999;   45.996;    0.000;-64.99519
 609.24;    0.001;  -10.003;    0.000;10.00458
 609.82;    7.001;   -0.004;    0.000; 7.00584
 610.41;  -12.999;  -77.004;    0.000;64.00566
 610.99;   29.001;  -23.004;    0.000;52.00500
 611.57;  -22.999;  -29.002;    0.000; 6.00314
 612.15;   46.001;   -5.004;    0.000;51.00565
 612.74;   -7.999;  -74.002;    0.000;66.00310
 613.32;    8.001;    8.996;    0.000;-0.99457
 613.90;    3.001;  -27.004;    0.000;30.00476
 614.48;  -28.998;   -9.005;    0.000;-19.99382
 615.07;    8.002;   -4.006;    0.000;12.00830
 615.65;  -21.999;  -39.002;    0.000;17.00237
 616.23;  -32.999;  -35.004;    0.000; 2.00540
 616.81;  -39.998;   13.993;    0.000;-53.99066
 617.40;  -47.997;  -22.009;    0.000;-25.98844
 617.98;  -13.997;  -62.010;    0.000;48.01361
 618.56;   -3.998;  -19.006;    0.000;15.00858
 619.14;    0.002;  -32.007;    0.000;32.00996
 619.72;  -18.998;  -53.007;    0.000;34.00983
 620.31;  -15.998;  -51.006;    0.000;35.00763
 620.89;    2.002;  -67.005;    0.000;69.00635
 621.47;  -19.998;   -6.005;    0.000;-13.99324
 622.05;  -26.998;  -78.005;    0.000;51.00628
 622.63;  -40.998;   28.994;    0.000;-69.99206
 623.22;  -14.999;  -53.003;    0.000;38.00402
 623.80;  -24.998;   -8.006;    0.000;-16.99168
 624.38;    9.001;   12.996;    0.000;-3.99449
 624.96;   21.002;   -7.006;    0.000;28.00793
 625.54;  -25.998;  -25.005;    0.000;-0.99268
 626.13;   -6.999;  -13.003;    0.000; 6.00444
 626.71;   48.002;  -30.005;    0.000;78.00641
 627.29;   13.003;  -54.008;    0.000;67.01048
 627.87;    9.002;  -83.005;    0.000;92.00663
 628.45;  -50.998;    0.995;    0.000;-51.99365
 629.03;  -52.998;  -78.005;    0.000;25.00727
 629.62;  -25.998;   -3.006;    0.000;-22.99249
 630.20;  -24.998;  -41.005;    0.000;16.00719
 630.78;   33.001;  -42.004;    0.000;75.00576
 631.36;  -14.998;  -11.007;    0.000;-3.99131
 631.94;   14.001;  -31.004;    0.000;45.00548
 632.52;  -49.999;   26.996;    0.000;-76.99530
 633.10;  -37.998;  -11.006;    0.000;-26.99135
 633.68;   -0.998;  -45.006;    0.000;44.00800
 634.27;  -18.998;  -44.006;    0.000;25.00741
 634.85;    4.002;   -9.006;    0.000;13.00830
 635.43;   63.003;    0.992;    0.000;62.01079
 636.01;  -47.998;  -29.005;    0.000;-18.99367
 636.59;  -21.998;  -47.005;    0.000;25.00691
 637.17;  -18.997;  -48.009;    0.000;29.01236
 637.75;  -27.998;  -41.007;    0.000;13.00896
 638.33;  -37.998; -115.007;    0.000;77.00923
 638.91;   36.002;  -25.006;    0.000;61.00838
 639.50;  -49.997;  -29.008;    0.000;-20.98887
 640.08;  -18.998;  -20.006;    0.000; 1.00777
 640.66;  -44.998;  -18.006;    0.000;-26.99225
 641.24;  -12.998;  -52.006;    0.000;39.00773
 641.82;  -46.998;  -66.006;    0.000;19.00771
 642.40;  -28.998;   20.994;    0.000;-49.99231
 642.98;  -42.998;  -26.006;    0.000;-16.99233
 643.56;   70.002;  -41.006;    0.000;111.00765
 644.14;  -37.998;  -32.006;    0.000;-5.99236
 644.72;  -22.998;  -29.006;    0.000; 6.00762
 645.30;  -19.998;  -53.006;    0.000;33.00760
 645.88;   -8.998;   24.994;    0.000;-33.99242
 646.46;  -51.998;  -38.006;    0.000;-13.99244
 647.04;   -6.998;  -54.006;    0.000;47.00754
 647.62;  -16.998;  -14.006;    0.000;-2.99248
 648.20;   16.002;   30.994;    0.000;-14.99250
 648.78;  -65.998;  -55.006;    0.000;-10.99252
 649.36;  -11.998;  -37.006;    0.000;25.00746
 649.94;  -58.998;  -43.006;    0.000;-15.99255
 650.52;   38.002;  -15.006;    0.000;53.00743
 651.11;  -62.998;  -52.006;    0.000;-10.99259
 651.69;  -14.998;   -8.006;    0.000;-6.99261
 652.27;  -16.998;  -12.006;    0.000;-4.99263
 652.85;  -46.998;  -88.006;    0.000;41.00735
 653.43;  -13.998;  -59.005;    0.000;45.00733
 654.01;   27.002;  -26.005;    0.000;53.00731
 654.59;  -72.998;  -40.005;    0.000;-32.99271
 655.17;  -35.998;  -68.005;    0.000;32.00727
 655.74;    5.002;  -16.005;    0.000;21.00725
 656.32;  -32.998;    1.995;    0.000;-34.99276
 656.90;   -1.998;  -43.005;    0.000;41.00722
 657.48;  -19.998;  -14.005;    0.000;-5.99280
 658.06;  -40.998;  -20.005;    0.000;-20.99282
 658.64;   35.002;   29.995;    0.000; 5.00716
 659.22;  -21.998;  -27.005;    0.000; 5.00714
 659.80;  -36.998;  -76.005;    0.000;39.00712
 660.38; -104.998;  -25.005;    0.000;-79.99290
 660.96;   10.002;  -62.005;    0.000;72.00708
 661.54;  -95.998;  -43.005;    0.000;-52.99294
 662.12;  -20.998;  -74.005;    0.000;53.00705
 662.70;   40.002;  -74.005;    0.000;114.00703
 663.28;  -33.998;   24.995;    0.000;-58.99299
 663.86;  -19.998;  -25.005;    0.000; 5.00699
 664.44;  -43.998;   47.995;    0.000;-91.99303
 665.02;  -47.998;    0.995;    0.000;-48.99305
 665.60;    0.002;  -41.005;    0.000;41.00693
 666.18;  -31.998;  -25.005;    0.000;-6.99309
 666.75;    0.002;  -63.005;    0.000;63.00689
 667.33;  -34.998;  -22.005;    0.000;-12.99313
 667.91;  -11.998;   27.995;    0.000;-39.99315
 668.49;  -82.998;    3.995;    0.000;-86.99316
 669.07;  -39.998;   24.995;    0.000;-64.99318
 669.65;  -20.998;  -33.005;    0.000;12.00680
 670.23;  -30.998;   24.995;    0.000;-55.99322
 670.81;  -88.998;  -20.005;    0.000;-68.99324
 671.39;  -68.998;  -66.005;    0.000;-2.99326
 671.97;  -44.998;  -43.005;    0.000;-1.99328
 672.54;    8.002;   -9.005;    0.000;17.00670
 673.12;  -56.998;  -13.005;    0.000;-43.99332
 673.70;    6.002;  -38.005;    0.000;44.00666
 674.28;  -35.998;  -57.005;    0.000;21.00665
 674.86;  -79.998;  -12.005;    0.000;-67.99337
 675.44;  -52.998;   17.995;    0.000;-70.99339
 676.02;    0.002;  -27.005;    0.000;27.00659
 676.59;  -31.998;   -9.005;    0.000;-22.99343
 677.17;    2.002;  -55.005;    0.000;57.00655
 677.75;   23.002;  -40.005;    0.000;63.00653
 678.33;   -9.998;   -3.005;    0.000;-6.99349
 678.91;  -50.998;  -39.005;    0.000;-11.99351
 679.49;   -9.998;   32.995;    0.000;-42.99353
 680.06;  -63.998;  -55.005;    0.000;-8.99355
 680.64;  -73.998;  -34.005;    0.000;-39.99356
 681.22;  -27.998;  -23.005;    0.000;-4.99358
 681.80;  -26.998;  -12.005;    0.000;-14.99360
 682.38;  -13.998;   -7.005;    0.000;-6.99362
 682.96;  -47.998;   -2.005;    0.000;-45.99364
 683.53;  -57.998;  -47.005;    0.000;-10.99366
 684.11;   -7.998;  -60.005;    0.000;52.00632
 684.69;  -18.998;   -8.005;    0.000;-10.99370
 685.27;  -20.998;   -0.005;    0.000;-20.99372
 685.85;  -32.998;  -61.005;    0.000;28.00626
 686.42;  -22.998;  -34.005;    0.000;11.00625
 687.00;  -14.998;  -24.005;    0.000; 9.00623
 687.58;  -12.998;   33.995;    0.000;-46.99379
 688.16;  -75.998;  -62.005;    0.000;-13.99381
 688.73;  -33.998;  -37.005;    0.000; 3.00617
 689.31;  -30.998;  -11.005;    0.000;-19.99385
 689.89;  -26.998;  -12.005;    0.000;-14.99387
 690.47;   -5.998;  -23.005;    0.000;17.00611
 691.04;  -55.998;  -49.005;    0.000;-6.99391
 691.62;  -21.998;  -64.005;    0.000;42.00607
 692.20;  -22.998;  -46.005;    0.000;23.00606
 692.78;  -24.998;  -56.005;    0.000;31.00604
 693.35;   -0.998;  -22.005;    0.000;21.00602
 693.93;   31.001;   -8.004;    0.000;39.00600
 694.51;  -20.999;   -4.004;    0.000;-16.99402
 695.09;  -14.999;  -55.004;    0.000;40.00596
 695.66;  -45.999;  -30.004;    0.000;-15.99406
 696.24;  -47.999;  -49.004;    0.000; 1.00592
 696.82;  -27.999;    3.996;    0.000;-31.99410
 697.39;  -67.999;  -24.004;    0.000;-43.99412
 697.97;  -20.999;  -20.004;    0.000;-0.99414
 698.55;  -93.999;  -19.004;    0.000;-74.99415
 699.13;  -31.999;  -31.004;    0.000;-0.99417
 699.70;  -46.999;  -34.004;    0.000;-12.99419
 700.28;  -51.999;  -44.004;    0.000;-7.99421
 700.86;   -9.999;  -14.004;    0.000; 4.00577
 701.43;    3.001;  -20.004;    0.000;23.00575
 702.01; -110.999;  -39.004;    0.000;-71.99427
 702.59;  -20.999;  -63.004;    0.000;42.00571
 703.16;  -34.999;  -14.004;    0.000;-20.99431
 703.74;  -42.999;   -1.004;    0.000;-41.99433
 704.32;  -19.999;  -46.004;    0.000;26.00566
 704.89;  -18.999;  -34.004;    0.000;15.00564
 705.47;  -61.999;  -13.004;    0.000;-48.99438
 706.05;   -4.999;  -75.004;    0.000;70.00560
 706.62;  -66.999;  -60.004;    0.000;-6.99442
 707.20;  -67.999;  -21.004;    0.000;-46.99444
 707.78;  -70.999;  -67.004;    0.000;-3.99446
 708.35;  -34.999;  -27.004;    0.000;-7.99448
 708.93;  -31.999;  -63.004;    0.000;31.00550
 709.51;  -14.999;  -92.004;    0.000;77.00548
 710.08;  -48.999;  -28.004;    0.000;-20.99454
 710.66;  -58.999;  -26.004;    0.000;-32.99455
 711.23;  -44.999;  -57.004;    0.000;12.00543
 711.81;   -5.999;  -58.004;    0.000;52.00541
 712.39;  -22.999;  -20.004;    0.000;-2.99461
 712.96;  -11.999;  -36.004;    0.000;24.00537
 713.54;  -52.999;  -21.004;    0.000;-31.99465
 714.11;  -49.999;  -47.004;    0.000;-2.99467
 714.69;  -67.999;  -69.004;    0.000; 1.00531
 715.27;   -8.999;  -60.004;    0.000;51.00529
 715.84;  -26.999;  -76.004;    0.000;49.00527
 716.42;  -27.999;  -57.004;    0.000;29.00526
 716.99;  -35.999;   -9.004;    0.000;-26.99476
 717.57;    0.001;   -1.004;    0.000; 1.00522
 718.15;    4.001;  -48.004;    0.000;52.00520
 718.72;    5.001;   -8.004;    0.000;13.00518
 719.30;  -60.999; -100.004;    0.000;39.00516
 719.87;  -19.999;    8.996;    0.000;-28.99486
 720.45;  -22.999;  -60.004;    0.000;37.00512
 721.02;  -15.999;  -66.004;    0.000;50.00510
 721.60;  -46.999;  -26.004;    0.000;-20.99492
 722.17;  -11.999;   -8.004;    0.000;-3.99494
 722.75;  -30.999;  -19.004;    0.000;-11.99495
 723.33;  -60.999;  -22.004;    0.000;-38.99497
 723.90;  -14.999;  -79.004;    0.000;64.00501
 724.48;  -42.999;  -79.004;    0.000;36.00499
 725.05;  -40.999;  -32.004;    0.000;-8.99503
 725.63;  -56.999;  -38.004;    0.000;-18.99505
 726.20;  -31.999;  -13.004;    0.000;-18.99507
 726.78;  -12.999;   21.996;    0.000;-34.99509
 727.35;  -30.999;   16.996;    0.000;-47.99511
 727.93;  -47.999;  -18.004;    0.000;-29.99513
 728.50;  -69.999;  -43.004;    0.000;-26.99514
 729.08;  -45.999;  -39.004;    0.000;-6.99516
 729.65;  -27.999;    0.996;    0.000;-28.99518
 730.23;   -6.999;  -36.004;    0.000;29.00480
 730.80;  -38.999;  -49.004;    0.000;10.00478
 731.38;  -12.999;  -34.004;    0.000;21.00476
 731.95; -101.999;  -41.004;    0.000;-60.99526
 732.53;  -53.999;  -10.004;    0.000;-43.99528
 733.10;  -60.999;    1.996;    0.000;-62.99530
 733.68;  -40.999;  -27.004;    0.000;-13.99532
 734.25;  -47.999;  -49.003;    0.000; 1.00467
 734.82;  -38.999;   14.997;    0.000;-53.99535
 735.40;  -83.999;  -79.003;    0.000;-4.99537
 735.97;  -21.999;  -21.003;    0.000;-0.99539
 736.55;  -51.999;  -33.003;    0.000;-18.99541
 737.12;    4.001;  -95.003;    0.000;99.00457
 737.70;  -44.999;  -84.003;    0.000;39.00455
 738.27;  -29.999;   -6.003;    0.000;-23.99547
 738.85;  -45.999;  -62.003;    0.000;16.00451
 739.42;  -71.999;  -47.003;    0.000;-24.99551
 739.99;  -58.999;  -15.003;    0.000;-43.99553
 740.57;  -21.999;  -36.003;    0.000;14.00446
 741.14;  -41.999;  -11.003;    0.000;-30.99556
 741.72;    3.001;    0.997;    0.000; 2.00442
 742.29;  -50.999;  -39.003;    0.000;-11.99560
 742.87;    5.001;    7.997;    0.000;-2.99562
 743.44;  -53.999;  -22.003;    0.000;-31.99564
 744.01;    1.001;  -70.003;    0.000;71.00434
 744.59;  -19.999;  -43.003;    0.000;23.00432
 745.16;  -64.999;    3.997;    0.000;-68.99570
 745.73;  -12.999;  -58.003;    0.000;45.00428
 746.31;  -64.999;  -33.003;    0.000;-31.99573
 746.88;  -16.999;  -57.003;    0.000;40.00425
 747.46;  -13.999;  -18.003;    0.000; 4.00423
 748.03;  -15.999;  -36.003;    0.000;20.00421
 748.60;  -43.999;  -39.003;    0.000;-4.99581
 749.18;  -65.999;  -72.003;    0.000; 6.00417
 749.75;   -5.999;  -43.003;    0.000;37.00415
 750.32;  -11.999;  -73.003;    0.000;61.00413
 750.90;    0.001;   19.997;    0.000;-19.99589
 751.47;  -68.999;   -5.003;    0.000;-63.99591
 752.04;  -56.999;  -38.003;    0.000;-18.99593
 752.62;  -29.999;  -35.003;    0.000; 5.00406
 753.19;  -73.999;  -11.003;    0.000;-62.99596
 753.76;  -40.999;  -64.003;    0.000;23.00402
 754.34;  -13.999;  -35.003;    0.000;21.00400
 754.91;  -77.999;  -53.003;    0.000;-24.99602
 755.48;    9.001;  -28.003;    0.000;37.00396
 756.06;  -77.999;  -33.003;    0.000;-44.99606
 756.63;  -15.999;  -34.003;    0.000;18.00392
 757.20;    6.001;   22.997;    0.000;-16.99610
 757.78;  -28.999;  -39.003;    0.000;10.00388
 758.35;  -70.999;  -50.003;    0.000;-20.99613
 758.92;  -10.999;  -13.003;    0.000; 2.00385
 759.50;  -48.999;  -51.003;    0.000; 2.00383
 760.07;  -18.999;  -65.003;    0.000;46.00381
 760.64;  -23.999;  -53.003;    0.000;29.00379
 761.21;  -20.999;  -57.003;    0.000;36.00377
 761.79;  -74.999;  -40.003;    0.000;-34.99625
 762.36;    0.001;  -30.003;    0.000;30.00373
 762.93;  -54.999;  -86.003;    0.000;31.00371
 763.50;    4.001;  -41.003;    0.000;45.00369
 764.08;  -19.999;  -70.003;    0.000;50.00367
 764.65;  -34.999;   -0.003;    0.000;-34.99634
 765.22;  -68.999;   14.997;    0.000;-83.99636
 765.79;  -22.999;  -25.003;    0.000; 2.00362
 766.37;   -8.999;  -44.003;    0.000;35.00360
 766.94;  -49.999;  -19.003;    0.000;-30.99642
 767.51;  -66.999;  -54.003;    0.000;-12.99644
 768.08;  -49.999;  -33.003;    0.000;-16.99646
 768.66;  -34.999;   -6.003;    0.000;-28.99648
 769.23;    4.001;  -60.003;    0.000;64.00350
 769.80;  -31.999;  -59.003;    0.000;27.00348
 770.37;  -32.999;   -9.003;    0.000;-23.99653
 770.94;  -63.999;  -18.003;    0.000;-45.99655
 771.52;    5.001;  -39.003;    0.000;44.00343
 772.09;  -44.999;    3.997;    0.000;-48.99659
 772.66;  -15.999;    1.997;    0.000;-17.99661
 773.23;   -1.999;  -60.003;    0.000;58.00337
 773.80;    4.001;    6.997;    0.000;-2.99665
 774.38;  -56.999;  -37.002;    0.000;-19.99667
 774.95;  -29.999;  -12.002;    0.000;-17.99669
 775.52;  -50.999;  -67.002;    0.000;16.00329
 776.09;    1.001;  -28.002;    0.000;29.00328
 776.66;  -86.999;    1.998;    0.000;-88.99674
 777.24;  -11.999;  -47.002;    0.000;35.00324
 777.81;  -37.999;  -48.002;    0.000;10.00322
 778.38;  -24.999;  -74.002;    0.000;49.00320
 778.95;  -54.999;  -98.002;    0.000;43.00318
 779.52;  -38.999;  -25.002;    0.000;-13.99684
 780.09;  -24.999;   -3.002;    0.000;-21.99686
 780.66;  -42.999;  -20.002;    0.000;-22.99688
 781.24;  -73.999;  -33.002;    0.000;-40.99690
 781.81;   29.001;  -71.002;    0.000;100.00308
 782.38;  -80.999;  -30.002;    0.000;-50.99693
 782.95;  -29.999;    9.998;    0.000;-39.99695
 783.52;  -58.999;  -16.002;    0.000;-42.99697
 784.09;   -4.999;  -19.002;    0.000;14.00301
 784.66;  -32.999;  -21.002;    0.000;-11.99701
 785.23;  -57.999;  -21.002;    0.000;-36.99703
 785.80;  -71.999;  -23.002;    0.000;-48.99705
 786.38;  -40.999;  -44.002;    0.000; 3.00293
 786.95;  -73.999;  -37.002;    0.000;-36.99709
 787.52;  -69.999;  -65.002;    0.000;-4.99711
 788.09;  -63.999;  -26.002;    0.000;-37.99712
 788.66;  -53.999;  -50.002;    0.000;-3.99714
 789.23; -113.999;   -0.002;    0.000;-113.99716
 789.80;  -10.999;  -35.002;    0.000;24.00282
 790.37;  -75.999;  -74.002;    0.000;-1.99720
 790.94;  -29.999;  -21.002;    0.000;-8.99722
 791.51;  -47.999;  -49.002;    0.000; 1.00276
 792.08;  -10.999;  -28.002;    0.000;17.00274
 792.65;  -36.999;  -51.002;    0.000;14.00272
 793.22;   -7.999;  -79.002;    0.000;71.00270
 793.80;  -51.999;  -56.002;    0.000; 4.00268
 794.37;   -1.999;  -67.002;    0.000;65.00267
 794.94;  -42.999;  -64.002;    0.000;21.00265
 795.51;  -33.999;  -36.002;    0.000; 2.00263
 796.08;  -44.999;  -11.002;    0.000;-33.99739
 796.65;  -19.999;  -36.002;    0.000;16.00259
 797.22;  -43.999;  -17.002;    0.000;-26.99743
 797.79;  -52.999;  -56.002;    0.000; 3.00255
 798.36;  -71.999;  -20.002;    0.000;-51.99747
 798.93;  -63.999;  -30.002;    0.000;-33.99749
 799.50;  -58.999;   -0.002;    0.000;-58.99751
 800.07;   -3.999;  -73.002;    0.000;69.00248
 800.64;  -63.999; -104.002;    0.000;40.00246
 801.21;  -53.999;  -16.002;    0.000;-37.99756
 801.78;  -14.999;   -5.002;    0.000;-9.99758
 802.35;   -0.999;  -28.002;    0.000;27.00240
 802.92;  -68.999;   -6.002;    0.000;-62.99762
 803.49;  -25.999;   -8.002;    0.000;-17.99764
 804.06;  -53.999;  -58.002;    0.000; 4.00234
 804.63;  -48.999;  -35.002;    0.000;-13.99768
 805.20;  -71.999;  -66.002;    0.000;-5.99770
 805.77;  -33.999;   -9.002;    0.000;-24.99772
 806.34; -113.999;  -18.002;    0.000;-95.99773
 806.91;  -54.999;  -51.002;    0.000;-3.99775
 807.47;  -67.999;  -59.002;    0.000;-8.99777
 808.04;  -71.999;  -61.002;    0.000;-10.99779
 808.61;  -31.999;  -56.002;    0.000;24.00219
 809.18;  -30.999;  -21.002;    0.000;-9.99783
 809.75;  -16.999;  -47.002;    0.000;30.00215
 810.32;  -19.999;  -40.002;    0.000;20.00213
 810.89;  -42.999;  -34.002;    0.000;-8.99789
 811.46;  -21.999;  -88.002;    0.000;66.00209
 812.03;  -66.999;  -38.002;    0.000;-28.99792
 812.60;  -49.999;   -0.002;    0.000;-49.99794
 813.17;  -82.999;  -36.002;    0.000;-46.99796
 813.74;    7.001;  -29.002;    0.000;36.00202
 814.31;  -44.000;  -80.001;    0.000;36.00200
 814.87;  -15.000;  -37.001;    0.000;22.00198
 815.44;  -80.000;  -84.001;    0.000; 4.00196
 816.01;  -61.000;  -58.001;    0.000;-2.99806
 816.58;   -6.000;  -84.001;    0.000;78.00192
 817.15;  -20.000;  -32.001;    0.000;12.00190
 817.72;  -65.000;  -48.001;    0.000;-16.99811
 818.29;   38.000;  -42.001;    0.000;80.00187
 818.86;  -58.000;  -73.001;    0.000;15.00185
 819.42;  -17.000;  -16.001;    0.000;-0.99817
 819.99;  -73.000;  -34.001;    0.000;-38.99819
 820.56; -112.000;  -42.001;    0.000;-69.99821
 821.13;   26.000;  -67.001;    0.000;93.00177
 821.70;  -13.000;  -13.001;    0.000; 0.00175
 822.27;  -54.000;  -62.001;    0.000; 8.00173
 822.84;  -34.000;  -21.001;    0.000;-12.99829
 823.40;  -25.000;  -39.001;    0.000;14.00169
 823.97;  -23.000;   47.999;    0.000;-70.99832
 824.54;  -28.000;  -40.001;    0.000;12.00166
 825.11;  -17.000;  -23.001;    0.000; 6.00164
 825.68;  -42.000;  -54.001;    0.000;12.00162
 826.24;   -2.000;   -6.001;    0.000; 4.00160
 826.81;   -9.000;  -86.001;    0.000;77.00158
 827.38;  -16.000;    7.999;    0.000;-23.99844
 827.95;  -64.000;  -93.001;    0.000;29.00154
 828.52;  -51.000;  -19.001;    0.000;-31.99848
 829.08;  -12.000;  -49.001;    0.000;37.00150
 829.65;    2.000;  -65.001;    0.000;67.00149
 830.22;  -45.000;  -32.001;    0.000;-12.99853
 830.79;  -82.000;  -43.001;    0.000;-38.99855
 831.36;  -65.000;  -27.001;    0.000;-37.99857
 831.92;  -28.000;  -13.001;    0.000;-14.99859
 832.49;  -44.000;   -6.001;    0.000;-37.99861
 833.06;  -68.000;   -4.001;    0.000;-63.99863
 833.63;  -54.000;  -45.001;    0.000;-8.99865
 834.19;  -32.000;   -2.001;    0.000;-29.99867
 834.76;  -77.000;  -42.001;    0.000;-34.99869
 835.33;   -2.000;  -21.001;    0.000;19.00129
 835.90;  -45.000;  -58.001;    0.000;13.00128
 836.46;    1.000;   24.999;    0.000;-23.99874
 837.03;  -61.000;  -17.001;    0.000;-43.99876
 837.60;   36.000;  -59.001;    0.000;95.00122
 838.17;  -96.000;  -24.001;    0.000;-71.99880
 838.73;  -32.000;  -35.001;    0.000; 3.00118
 839.30;  -13.000;  -77.001;    0.000;64.00116
 839.87;    0.000;  -71.001;    0.000;71.00114
 840.43;  -37.000;  -49.001;    0.000;12.00112
 841.00;  -42.000;  -36.001;    0.000;-5.99890
 841.57;  -27.000;  -83.001;    0.000;56.00109
 842.14;  -48.000;    0.999;    0.000;-48.99893
 842.70;  -79.000;  -47.001;    0.000;-31.99895
 843.27;   -8.000;  -45.001;    0.000;37.00103
 843.84;  -40.000;   -2.001;    0.000;-37.99899
 844.40;  -17.000;  -12.001;    0.000;-4.99901
 844.97;  -17.000;   -9.001;    0.000;-7.99903
 845.54;   -9.000;  -36.001;    0.000;27.00095
 846.10;  -73.000;  -36.001;    0.000;-36.99907
 846.67;   26.000;  -29.001;    0.000;55.00091
 847.24;  -62.000; -100.001;    0.000;38.00089
 847.80;  -26.000;  -67.001;    0.000;41.00088
 848.37;  -10.000;  -94.001;    0.000;84.00086
 848.94;  -50.000;  -16.001;    0.000;-33.99916
 849.50;  -24.000;  -44.001;    0.000;20.00082
 850.07;   27.000;  -36.001;    0.000;63.00080
 850.63;  -34.000;  -47.001;    0.000;13.00078
 851.20;   -9.000;  -21.001;    0.000;12.00076
 851.77;  -22.000;  -42.001;    0.000;20.00074
 852.33;  -30.000;   -2.001;    0.000;-27.99928
 852.90;  -10.000;  -30.001;    0.000;20.00070
 853.47;  -43.000;  -86.001;    0.000;43.00069
 854.03;  -44.000;  -36.000;    0.000;-7.99933
 854.60;  -53.000;  -41.000;    0.000;-11.99935
 855.16;  -38.000;  -85.000;    0.000;47.00063
 855.73;  -39.000;  -17.000;    0.000;-21.99939
 856.30;  -91.000;   -1.000;    0.000;-89.99941
 856.86;  -50.000;  -40.000;    0.000;-9.99943
 857.43;  -42.000;  -44.000;    0.000; 2.00055
 857.99;   29.000;  -35.000;    0.000;64.00053
 858.56;  -41.000;  -38.000;    0.000;-2.99949
 859.12;  -27.000;    1.000;    0.000;-27.99950
 859.69;  -46.000;  -34.000;    0.000;-11.99952
 860.26; -107.000;  -34.000;    0.000;-72.99954
 860.82;  -55.000;  -67.000;    0.000;12.00044
 861.39;  -46.000;  -21.000;    0.000;-24.99958
 861.95;  -85.000;  -55.000;    0.000;-29.99960
 862.52;  -17.000;  -43.000;    0.000;26.00038
 863.08;  -35.000;  -21.000;    0.000;-13.99964
 863.65;  -63.000;  -16.000;    0.000;-46.99966
 864.21;  -46.000;  -48.000;    0.000; 2.00032
 864.78;  -22.000;  -18.000;    0.000;-3.99970
 865.34;   14.000;  -35.000;    0.000;49.00029
 865.91;    9.000;   31.000;    0.000;-21.99973
 866.47;  -65.000;  -48.000;    0.000;-16.99975
 867.04;  -33.000;  -42.000;    0.000; 9.00023
 867.61;  -28.000; -101.000;    0.000;73.00021
 868.17;  -57.000;  -36.000;    0.000;-20.99981
 868.74;    5.000;  -76.000;    0.000;81.00017
 869.30;  -30.000;  -18.000;    0.000;-11.99985
 869.86;  -20.000; -133.000;    0.000;113.00013
 870.43;  -32.000;  -97.000;    0.000;65.00011
 870.99;  -40.000;  -20.000;    0.000;-19.99990
 871.56;  -23.000;  -66.000;    0.000;43.00008
 872.12;  -80.000;  -61.000;    0.000;-18.99994
 872.69;   10.000; -101.000;    0.000;111.00004
 873.25;  -49.000;  -68.000;    0.000;19.00002
 873.82;  -46.000;   -2.000;    0.000;-44.00000
 874.38;  -47.000;  -95.000;    0.000;48.00000
 874.95;  -78.000;  -55.000;    0.000;-23.00000
 875.51;  -62.000;  -48.000;    0.000;-14.00000
 876.08;  -66.000;  -56.000;    0.000;-10.00000
 876.64;  -62.000;  -83.000;    0.000;21.00000
 877.20;  -41.000;  -28.000;    0.000;-13.00000
 877.77;  -32.000;  -61.000;    0.000;29.00000
 878.33;  -59.000;  -80.000;    0.000;21.00000
 878.90;  -44.000;  -72.000;    0.000;28.00000
 879.46;  -21.000;  -30.000;    0.000; 9.00000
 880.03;  -34.000;  -20.000;    0.000;-14.00000
 880.59;   -8.000;   19.000;    0.000;-27.00000
 881.15;  -83.000;  -44.000;    0.000;-39.00000
 881.72;  -52.000;  -56.000;    0.000; 4.00000
 882.28;  -76.000;  -67.000;    0.000;-9.00000
 882.85;  -27.000;  -68.000;    0.000;41.00000
 883.41;  -37.000;  -68.000;    0.000;31.00000
 883.97;  -37.000;  -36.000;    0.000;-1.00000
 884.54;  -55.000;  -48.000;    0.000;-7.00000
 885.10;  -20.000;  -12.000;    0.000;-8.00000
 885.66;  -23.000;  -48.000;    0.000;25.00000
 886.23;  -52.000;  -48.000;    0.000;-4.00000
 886.79;  -58.000;  -50.000;    0.000;-8.00000
 887.36;  -35.000;  -54.000;    0.000;19.00000
 887.92; -111.000;  -84.000;    0.000;-27.00000
 888.48;  -29.000;  -28.000;    0.000;-1.00000
 889.05;  -79.000;  -12.000;    0.000;-67.00000
 889.61;  -81.000;  -61.000;    0.000;-20.00000
 890.17;  -37.000;  -67.000;    0.000;30.00000
 890.74;  -87.000;  -12.000;    0.000;-75.00000
 891.30;  -56.000;  -46.000;    0.000;-10.00000
 891.86;  -43.000;  -72.000;    0.000;29.00000
 892.43;  -80.000;  -58.000;    0.000;-22.00000
 892.99;  -50.000;  -16.000;    0.000;-34.00000
 893.55; -123.000;  -64.000;    0.000;-59.00000
 894.11;  -40.000;  -41.000;    0.000; 1.00000
 894.68;  -59.000; -114.000;    0.000;55.00000
 895.24;   20.000;    7.000;    0.000;13.00000
 895.80;    2.000;  -46.000;    0.000;48.00000
 896.37;  -15.000;   12.000;    0.000;-27.00000
 896.93;  -37.000;  -74.000;    0.000;37.00000
 897.49;  -17.000; -105.000;    0.000;88.00000
 898.05;  -55.000;  -26.000;    0.000;-29.00000
 898.62;   33.000;    7.000;    0.000;26.00000
 899.18;   11.000;  -32.000;    0.000;43.00000
 899.74;   48.000;  -47.000;    0.000;95.00000
 900.31;  -56.000;  -66.000;    0.000;10.00000
 900.87;   -1.000;  -71.000;    0.000;70.00000
 901.43;  -81.000;  -92.000;    0.000;11.00000
 901.99;  -62.000;  -44.000;    0.000;-18.00000
 902.56;   -9.000;  -61.000;    0.000;52.00000
 903.12;   -8.000;  -17.000;    0.000; 9.00000
 903.68;  -16.000;  -87.000;    0.000;71.00000
 904.24;  -58.000;  -24.000;    0.000;-34.00000
 904.80;  -26.000;  -88.000;    0.000;62.00000
 905.37;  -12.000;  -23.000;    0.000;11.00000
 905.93;  -21.000; -110.000;    0.000;89.00000
 906.49;  -34.000;  -42.000;    0.000; 8.00000
 907.05;  -62.000;  -68.000;    0.000; 6.00000
 907.61;  -35.000;  -76.000;    0.000;41.00000
 908.18;  -65.000;   17.000;    0.000;-82.00000
 908.74;   20.000;  -35.000;    0.000;55.00000
 909.30;  -54.000;    1.000;    0.000;-55.00000
 909.86;  -25.000;  -62.000;    0.000;37.00000
 910.42;   -5.000;  -28.000;    0.000;23.00000
 910.99;  -34.000;  -54.000;    0.000;20.00000
 911.55;  -41.000;  -13.000;    0.000;-28.00000
 912.11;  -47.000;    8.000;    0.000;-55.00000
 912.67;   26.000;  -43.000;    0.000;69.00000
 913.23;  -80.000;  -22.000;    0.000;-58.00000
 913.79;  -54.000;  -39.000;    0.000;-15.00000
 914.36;  -16.000;  -31.000;    0.000;15.00000
 914.92;  -33.000;  -98.000;    0.000;65.00000
 915.48;  -25.000;  -36.000;    0.000;11.00000
 916.04;   15.000;  -13.000;    0.000;28.00000
 916.60;   -7.000;   -6.000;    0.000;-1.00000
 917.16;   -5.000;  -29.000;    0.000;24.00000
 917.72;    2.000;  -59.000;    0.000;61.00000
 918.28;  -36.000;  -44.000;    0.000; 8.00000
 918.85;  -14.000;  -27.000;    0.000;13.00000
 919.41;  -17.000;  -79.000;    0.000;62.00000
 919.97;  -34.000;  -31.000;    0.000;-3.00000
 920.53;  -64.000;  -27.000;    0.000;-37.00000
 921.09;  -60.000;  -14.000;    0.000;-46.00000
 921.65;  -72.000;  -21.000;    0.000;-51.00000
 922.21;   28.000;  -34.000;    0.000;62.00000
 922.77;  -14.000;  -75.000;    0.000;61.00000
 923.33;  -38.000;  -22.000;    0.000;-16.00000
 923.89;  -49.000;  -73.000;    0.000;24.00000
 924.45;  -34.000;  -37.000;    0.000; 3.00000
 925.01;   -3.000;  -43.000;    0.000;40.00000
 925.58;  -37.000;   -8.000;    0.000;-29.00000
 926.14;  -40.000;  -77.000;    0.000;37.00000
 926.70;  -32.000;   -7.000;    0.000;-25.00000
 927.26;  -90.000;  -26.000;    0.000;-64.00000
 927.82;  -17.000;  -52.000;    0.000;35.00000
 928.38;  -10.000;  -26.000;    0.000;16.00000
 928.94;  -46.000;  -53.000;    0.000; 7.00000
 929.50;  -45.000;  -83.000;    0.000;38.00000
 930.06;  -27.000;  -61.000;    0.000;34.00000
 930.62;  -42.000;    8.000;    0.000;-50.00000
 931.18;  -51.000;  -33.000;    0.000;-18.00000
 931.74;  -36.000;  -32.000;    0.000;-4.00000
 932.30;  -12.000;  -30.000;    0.000;18.00000
 932.86;  -69.000;  -48.000;    0.000;-21.00000
 933.42;  -61.000;   18.000;    0.000;-79.00000
 933.98;   -5.000; -110.000;    0.000;105.00000
 934.54;   -6.000;    2.000;    0.000;-8.00000
 935.10;  -41.000;  -43.000;    0.000; 2.00000
 935.66;   -4.000;  -60.000;    0.000;56.00000
 936.22;  -34.000; -113.000;    0.000;79.00000
 936.78;  -50.000;  -65.000;    0.000;15.00000
 937.34;  -66.000;  -55.000;    0.000;-11.00000
 937.90;  -84.000;   26.000;    0.000;-110.00000
 938.46;  -45.000;  -36.000;    0.000;-9.00000
 939.02;  -39.000;  -55.000;    0.000;16.00000
 939.58;  -66.000;  -88.000;    0.000;22.00000
 940.14;  -67.000;    2.000;    0.000;-69.00000
 940.70;  -41.000;  -41.000;    0.000; 0.00000
 941.25;  -54.000;  -54.000;    0.000; 0.00000
 941.81; -105.000;  -41.000;    0.000;-64.00000
 942.37;  -27.000;  -70.000;    0.000;43.00000
 942.93; -115.000;  -69.000;    0.000;-46.00000
 943.49;  -46.000;   31.000;    0.000;-77.00000
 944.05;  -38.000;  -69.000;    0.000;31.00000
 944.61;  -32.000;  -51.000;    0.000;19.00000
 945.17;  -15.000;  -73.000;    0.000;58.00000
 945.73;  -83.000;  -47.000;    0.000;-36.00000
 946.29;  -74.000;  -98.000;    0.000;24.00000
 946.85;  -47.000;  -47.000;    0.000; 0.00000
 947.40;  -89.000;  -31.000;    0.000;-58.00000
 947.96;  -13.000;  -39.000;    0.000;26.00000
 948.52;  -63.000;  -49.000;    0.000;-14.00000
 949.08;    5.000;  -37.000;    0.000;42.00000
 949.64;   11.000;  -61.000;    0.000;72.00000
 950.20;   -8.000;  -44.000;    0.000;36.00000
 950.76;   24.000;  -25.000;    0.000;49.00000
 951.32;  -39.000;  -39.000;    0.000; 0.00000
 951.87;  -41.000; -100.000;    0.000;59.00000
 952.43;   18.000;  -31.000;    0.000;49.00000
 952.99;  -43.000;  -70.000;    0.000;27.00000
 953.55;  -14.000;  -15.000;    0.000; 1.00000
 954.11;    5.000;  -49.000;    0.000;54.00000
 954.67;  -74.000;   32.000;    0.000;-106.00000
 955.22;  -46.000;  -69.000;    0.000;23.00000
 955.78;   -3.000;  -15.000;    0.000;12.00000
 956.34;  -76.000;  -93.000;    0.000;17.00000
 956.90;  -11.000;  -13.000;    0.000; 2.00000
 957.46;  -50.000;  -96.000;    0.000;46.00000
 958.01;  -51.000;   -9.000;    0.000;-42.00000
 958.57;  -69.000;  -97.000;    0.000;28.00000
 959.13;  -72.000;   -1.000;    0.000;-71.00000
 959.69;  -55.000;  -72.000;    0.000;17.00000
 960.25;  -45.000;    4.000;    0.000;-49.00000
 960.80;  -41.000;  -58.000;    0.000;17.00000
 961.36;  -30.000;  -69.000;    0.000;39.00000
 961.92;  -93.000;  -70.000;    0.000;-23.00000
 962.48;  -15.000;   -6.000;    0.000;-9.00000
 963.03;  -74.000;  -28.000;    0.000;-46.00000
 963.59;  -34.000;  -53.000;    0.000;19.00000
 964.15;  -38.000;  -42.000;    0.000; 4.00000
 964.71;  -68.000;  -17.000;    0.000;-51.00000
 965.26;  -93.000;   -5.000;    0.000;-88.00000
 965.82; -111.000;  -54.000;    0.000;-57.00000
 966.38;  -74.000;  -74.000;    0.000; 0.00000
 966.94;  -77.000;  -19.000;    0.000;-58.00000
 967.49;  -31.000;  -70.000;    0.000;39.00000
 968.05;  -52.000;  -13.000;    0.000;-39.00000
 968.61;  -57.000;  -23.000;    0.000;-34.00000
 969.17;  -47.000;  -35.000;    0.000;-12.00000
 969.72;  -96.000;  -67.000;    0.000;-29.00000
 970.28;  -25.000;  -67.000;    0.000;42.00000
 970.84;  -83.000;   -4.000;    0.000;-79.00000
 971.39;  -68.000;   -4.000;    0.000;-64.00000
 971.95;  -61.000;  -81.000;    0.000;20.00000
 972.51;  -60.000;  -30.000;    0.000;-30.00000
 973.06;  -46.000;   -7.000;    0.000;-39.00000
 973.62;  -53.000;  -12.000;    0.000;-41.00000
 974.18;  -33.000;  -52.000;    0.000;19.00000
 974.73;  -78.000;   -9.000;    0.000;-69.00000
 975.29;  -11.000;  -33.000;    0.000;22.00000
 975.85; -111.000;  -86.000;    0.000;-25.00000
 976.40;  -32.000;  -58.000;    0.000;26.00000
 976.96;  -40.000;  -48.000;    0.000; 8.00000
 977.52;  -16.000;  -56.000;    0.000;40.00000
 978.07;  -51.000;  -29.000;    0.000;-22.00000
 978.63;   -1.000;  -23.000;    0.000;22.00000
 979.19;   36.000;  -37.000;    0.000;73.00000
 979.74;   -1.000;  -50.000;    0.000;49.00000
 980.30;  -32.000;  -58.000;    0.000;26.00000
 980.85;  -29.000;  -52.000;    0.000;23.00000
 981.41;  -96.000;  -44.000;    0.000;-52.00000
 981.97; -107.000;  -54.000;    0.000;-53.00000
 982.52;   -4.000;  -39.000;    0.000;35.00000
 983.08;  -13.000;  -35.000;    0.000;22.00000
 983.63;  -50.000;  -16.000;    0.000;-34.00000
 984.19; -101.000;  -54.000;    0.000;-47.00000
 984.75;  -75.000;  -51.000;    0.000;-24.00000
 985.30;   -1.000;  -69.000;    0.000;68.00000
 985.86;   16.000;  -46.000;    0.000;62.00000
 986.41;  -42.000;  -32.000;    0.000;-10.00000
 986.97;  -30.000;  -13.000;    0.000;-17.00000
 987.52;  -51.000;  -51.000;    0.000; 0.00000
 988.08;  -14.000;  -51.000;    0.000;37.00000
 988.64;  -73.000;  -43.000;    0.000;-30.00000
 989.19;  -39.000;  -42.000;    0.000; 3.00000
 989.75;  -46.000;  -40.000;    0.000;-6.00000
 990.30;  -73.000;  -14.000;    0.000;-59.00000
 990.86;  -58.000; -125.000;    0.000;67.00000
 991.41;  -26.000;  -16.000;    0.000;-10.00000
 991.97;  -83.000;   -3.000;    0.000;-80.00000
 992.52;  -25.000;  -58.000;    0.000;33.00000
 993.08;  -78.000; -101.000;    0.000;23.00000
 993.63;  -37.000;  -19.000;    0.000;-18.00000
 994.19;   12.000;  -22.000;    0.000;34.00000
 994.74;  -73.000;  -66.000;    0.000;-7.00000
 995.30;  -66.000;  -17.000;    0.000;-49.00000
 995.85;  -65.000;    1.000;    0.000;-66.00000
 996.41;  -34.000;  -49.000;    0.000;15.00000
 996.96;  -14.000;  -35.000;    0.000;21.00000
 997.52;  -56.000;  -95.000;    0.000;39.00000
 998.07;   -5.000;  -45.000;    0.000;40.00000
 998.63;   -8.000; -103.000;    0.000;95.00000
 999.18;  -47.000;  -51.000;    0.000; 4.00000
 999.74;  -60.000;  -19.000;    0.000;-41.00000
1000.29;  -62.000;  -30.000;    0.000;-32.00000
1000.85;  -64.000;  -30.000;    0.000;-34.00000
1001.40;  -72.000;   34.000;    0.000;-106.00000
1001.96;  -59.000;  -39.000;    0.000;-20.00000
1002.51;  -56.000;  -50.000;    0.000;-6.00000
1003.06;  -40.000;  -73.000;    0.000;33.00000
1003.62;  -54.000;  -29.000;    0.000;-25.00000
1004.17;  -79.000;   -3.000;    0.000;-76.00000
1004.73;  -57.000;   12.000;    0.000;-69.00000
1005.28;   13.000;  -83.000;    0.000;96.00000
1005.83;    6.000;  -39.000;    0.000;45.00000
1006.39;  -20.000;  -26.000;    0.000; 6.00000
1006.94;  -57.000;  -12.000;    0.000;-45.00000
1007.50;  -42.000;  -18.000;    0.000;-24.00000
1008.05;   41.000;  -68.000;    0.000;109.00000
1008.60;  -58.000;  -25.000;    0.000;-33.00000
1009.16;   38.000;  -49.000;    0.000;87.00000
1009.71;  -64.000;  -68.000;    0.000; 4.00000
1010.27;  -93.000;   41.000;    0.000;-134.00000
1010.82;  -61.000;    4.000;    0.000;-65.00000
1011.37;   -1.000;   13.000;    0.000;-14.00000
1011.93;  -44.000;  -82.000;    0.000;38.00000
1012.48;  -64.000;  -46.000;    0.000;-18.00000
1013.03;  -30.000;  -37.000;    0.000; 7.00000
1013.59;  -26.000;  -10.000;    0.000;-16.00000
1014.14;   22.000;  -43.000;    0.000;65.00000
1014.69;  -30.000;  -65.000;    0.000;35.00000
1015.25;  -35.000;  -21.000;    0.000;-14.00000
1015.80;  -53.000;   39.000;    0.000;-92.00000
1016.35;  -52.000;  -39.000;    0.000;-13.00000
1016.91;  -87.000;  -34.000;    0.000;-53.00000
1017.46; -134.000;  -62.000;    0.000;-72.00000
1018.01;  -45.000;  -27.000;    0.000;-18.00000
1018.57;  -60.000;  -52.000;    0.000;-8.00000
1019.12;  -30.000;  -48.000;    0.000;18.00000
1019.67;  -51.000;  -25.000;    0.000;-26.00000
1020.23;  -29.000;  -23.000;    0.000;-6.00000
1020.78;  -42.000;  -51.000;    0.000; 9.00000
1021.33;   18.000;  -58.000;    0.000;76.00000
1021.88;    2.000;  -70.000;    0.000;72.00000
1022.44;  -13.000;   -1.000;    0.000;-12.00000
1022.99;  -28.000;  -49.000;    0.000;21.00000
1023.54;  -39.000;  -86.000;    0.000;47.00000
1024.09;  -24.000;  -97.000;    0.000;73.00000
1024.65;  -57.000;  -43.000;    0.000;-14.00000
1025.20;  -62.000;  -54.000;    0.000;-8.00000
1025.75;  -24.000;    7.000;    0.000;-31.00000
1026.30; -105.000;  -31.000;    0.000;-74.00000
1026.86;  -10.000;    9.000;    0.000;-19.00000
1027.41;  -50.000;  -45.000;    0.000;-5.00000
1027.96;   -9.000;   -9.000;    0.000; 0.00000
1028.51;  -25.000;  -38.000;    0.000;13.00000
1029.07;  -52.000;    4.000;    0.000;-56.00000
1029.62;  -42.000;  -39.000;    0.000;-3.00000
1030.17;  -35.000;  -51.000;    0.000;16.00000
1030.72;  -26.000; -100.000;    0.000;74.00000
1031.27;  -42.000;    5.000;    0.000;-47.00000
1031.83;   25.000;  -62.000;    0.000;87.00000
1032.38;  -27.000;  -54.000;    0.000;27.00000
1032.93;  -27.000;    3.000;    0.000;-30.00000
1033.48;  -61.000;   -8.000;    0.000;-53.00000
1034.03; -110.000;  -37.000;    0.000;-73.00000
1034.58;  -93.000;   -1.000;    0.000;-92.00000
1035.14;  -93.000;  -77.000;    0.000;-16.00000
1035.69;  -15.000;  -33.000;    0.000;18.00000
1036.24;  -80.000;  -44.000;    0.000;-36.00000
1036.79;  -35.000;   -5.000;    0.000;-30.00000
1037.34;  -68.000;  -42.000;    0.000;-26.00000
1037.89;  -18.000;  -19.000;    0.000; 1.00000
1038.45;  -13.000;  -80.000;    0.000;67.00000
1039.00;  -78.000;  -28.000;    0.000;-50.00000
1039.55;  -73.000;  -32.000;    0.000;-41.00000
1040.10; -116.000;    3.000;    0.000;-119.00000
1040.65;  -52.000;  -49.000;    0.000;-3.00000
1041.20;  -40.000;  -26.000;    0.000;-14.00000
1041.75;  -90.000;  -38.000;    0.000;-52.00000
1042.30;  -34.000;  -44.000;    0.000;10.00000
1042.85;  -89.000;  -50.000;    0.000;-39.00000
1043.41;  -58.000;  -31.000;    0.000;-27.00000
1043.96;  -61.000;  -61.000;    0.000; 0.00000
1044.51;  -67.000;  -35.000;    0.000;-32.00000
1045.06;  -90.000;  -26.000;    0.000;-64.00000
1045.61;   -6.000;    5.000;    0.000;-11.00000
1046.16;  -72.000;   -9.000;    0.000;-63.00000
1046.71;  -54.000;  -39.000;    0.000;-15.00000
1047.26;  -73.000;  -71.000;    0.000;-2.00000
1047.81;  -91.000;  -39.000;    0.000;-52.00000
1048.36;  -40.000;  -77.000;    0.000;37.00000
1048.91;   54.000;   13.000;    0.000;41.00000
1049.46;  -30.000;  -39.000;    0.000; 9.00000
1050.01;  -60.000;  -10.000;    0.000;-50.00000
1050.56;  -71.000;  -97.000;    0.000;26.00000
1051.11;  -20.000;  -27.000;    0.000; 7.00000
1051.66;  -28.000; -135.000;    0.000;107.00000
1052.21;  -29.000;  -16.000;    0.000;-13.00000
1052.76;  -53.000;  -11.000;    0.000;-42.00000
1053.31;  -69.000;  -79.000;    0.000;10.00000
1053.86;  -33.000;  -55.000;    0.000;22.00000
1054.41;  -68.000;  -50.000;    0.000;-18.00000
1054.96;  -18.000;  -18.000;    0.000; 0.00000
1055.51;  -42.000;  -16.000;    0.000;-26.00000
1056.06;  -24.000;  -43.000;    0.000;19.00000
1056.61;  -26.000;  -16.000;    0.000;-10.00000
1057.16;  -47.000;  -49.000;    0.000; 2.00000
1057.71;  -43.000;  -45.000;    0.000; 2.00000
1058.26;  -74.000;  -94.000;    0.000;20.00000
1058.81;  -66.000; -120.000;    0.000;54.00000
1059.36; -100.000;  -36.000;    0.000;-64.00000
1059.91;  -53.000;   -5.000;    0.000;-48.00000
1060.46;  -77.000;  -58.000;    0.000;-19.00000
1061.01;  -23.000;  -35.000;    0.000;12.00000
1061.56;  -48.000;  -92.000;    0.000;44.00000
1062.11;  -42.000;  -36.000;    0.000;-6.00000
1062.66;  -86.000;  -86.000;    0.000; 0.00000
1063.21;  -56.000;  -43.000;    0.000;-13.00000
1063.76;  -35.000;  -23.000;    0.000;-12.00000
1064.31;  -22.000;  -38.000;    0.000;16.00000
1064.86;  -46.000;   -4.000;    0.000;-42.00000
1065.40;  -83.000;  -23.000;    0.000;-60.00000
1065.95;  -53.000;  -73.000;    0.000;20.00000
1066.50;    7.000;   -2.000;    0.000; 9.00000
1067.05; -106.000;  -77.000;    0.000;-29.00000
1067.60;  -15.000;  -72.000;    0.000;57.00000
1068.15;  -91.000;  -91.000;    0.000; 0.00000
1068.70;  -86.000;  -31.000;    0.000;-55.00000
1069.25;  -98.000;  -79.000;    0.000;-19.00000
1069.79;  -17.000;  -17.000;    0.000; 0.00000
1070.34;  -87.000;  -40.000;    0.000;-47.00000
1070.89;  -29.000;  -38.000;    0.000; 9.00000
1071.44;  -70.000;  -81.000;    0.000;11.00000
1071.99;  -65.000;  -22.000;    0.000;-43.00000
1072.54;  -68.000;  -28.000;    0.000;-40.00000
1073.09;  -17.000;  -74.000;    0.000;57.00000
1073.63;  -92.000;  -89.000;    0.000;-3.00000
1074.18;  -43.000;  -79.000;    0.000;36.00000
1074.73;  -48.000;  -53.000;    0.000; 5.00000
1075.28;  -54.000;  -26.000;    0.000;-28.00000
1075.83;  -86.000;   15.000;    0.000;-101.00000
1076.38;  -66.000;  -33.000;    0.000;-33.00000
1076.92;  -85.000;  -51.000;    0.000;-34.00000
1077.47;  -48.000;  -23.000;    0.000;-25.00000
1078.02;  -64.000;  -49.000;    0.000;-15.00000
1078.57;  -33.000;  -67.000;    0.000;34.00000
1079.11;   -4.000;  -42.000;    0.000;38.00000
1079.66;  -74.000;  -26.000;    0.000;-48.00000
1080.21;  -39.000;  -95.000;    0.000;56.00000
1080.76;  -62.000;  -45.000;    0.000;-17.00000
1081.31;   16.000;  -69.000;    0.000;85.00000
1081.85;  -62.000;  -45.000;    0.000;-17.00000
1082.40;  -62.000;  -43.000;    0.000;-19.00000
1082.95;  -61.000;  -10.000;    0.000;-51.00000
1083.50;  -42.000;  -24.000;    0.000;-18.00000
1084.04;  -30.000;  -31.000;    0.000; 1.00000
1084.59;  -76.000;  -36.000;    0.000;-40.00000
1085.14;  -53.000;  -16.000;    0.000;-37.00000
1085.69;  -20.000;  -45.000;    0.000;25.00000
1086.23;   -9.000;  -26.000;    0.000;17.00000
1086.78;  -40.000;  -65.000;    0.000;25.00000
1087.33;  -44.000;  -40.000;    0.000;-4.00000
1087.87;  -40.000;  -78.000;    0.000;38.00000
1088.42;  -56.000;  -23.000;    0.000;-33.00000
1088.97;  -32.000;  -75.000;    0.000;43.00000
1089.52;  -20.000;  -29.000;    0.000; 9.00000
1090.06;  -69.000;  -92.000;    0.000;23.00000
1090.61;  -24.000;  -43.000;    0.000;19.00000
1091.16;  -87.000;  -73.000;    0.000;-14.00000
1091.70;  -52.000;  -12.000;    0.000;-40.00000
1092.25;  -99.000;  -84.000;    0.000;-15.00000
1092.80;  -52.000;  -42.000;    0.000;-10.00000
1093.34;  -53.000;  -37.000;    0.000;-16.00000
1093.89;  -93.000;  -49.000;    0.000;-44.00000
1094.44;  -27.000; -106.000;    0.000;79.00000
1094.98;  -19.000;  -36.000;    0.000;17.00000
1095.53;  -63.000;  -41.000;    0.000;-22.00000
1096.07;  -26.000;  -43.000;    0.000;17.00000
1096.62;  -88.000;  -72.000;    0.000;-16.00000
1097.17;  -33.000;  -81.000;    0.000;48.00000
1097.71;  -89.000;  -54.000;    0.000;-35.00000
1098.26;  -11.000;  -47.000;    0.000;36.00000
1098.81;  -72.000;  -59.000;    0.000;-13.00000
1099.35;  -38.000;  -58.000;    0.000;20.00000
1099.90;  -84.000;  -62.000;    0.000;-22.00000
1100.44;  -54.000;  -61.000;    0.000; 7.00000

