400-410_22mA_4.01V_1701237U1
Integration time [ms]: 100.000
Averaging Nr. [scans]: 1
Smoothing Nr. [pixels]: 0
Data measured with spectrometer [name]: 1701237U1
Wave   ;Sample   ;Dark     ;Reference;Scope Corrected for Dark
[nm]   ;[counts] ;[counts] ;[counts] ;[counts] 

 173.88;  -29.034;  -14.009;    0.000;-15.02461
 174.48;    4.978;  -57.006;    0.000;61.98398
 175.09;    5.992;    4.998;    0.000; 0.99406
 175.69;   15.979;    8.994;    0.000; 6.98444
 176.30;   39.965;   65.991;    0.000;-26.02554
 176.90;   15.988;  -12.003;    0.000;27.99118
 177.51;  -15.007;  -12.002;    0.000;-3.00536
 178.11;  -16.025;   20.993;    0.000;-37.01816
 178.72;  -53.014;  -19.004;    0.000;-34.01009
 179.32;   28.971;  -80.008;    0.000;108.97896
 179.93;   20.973;  -64.007;    0.000;84.97994
 180.54;   28.992;   40.998;    0.000;-12.00571
 181.14;   50.966;  -11.009;    0.000;61.97504
 181.75;    7.990;   44.997;    0.000;-37.00715
 182.35;   24.993;  -54.002;    0.000;78.99481
 182.96;   44.985;   76.996;    0.000;-32.01095
 183.56;   -3.036;   16.990;    0.000;-20.02669
 184.17;   15.980;  148.995;    0.000;-133.01464
 184.77;  -45.007;  -17.002;    0.000;-28.00548
 185.38;  -19.022;    7.994;    0.000;-27.01637
 185.98;   38.977;   50.994;    0.000;-12.01718
 186.59;  -13.014;    8.996;    0.000;-22.00991
 187.19;   32.981;   10.995;    0.000;21.98628
 187.80;    9.968;  -30.008;    0.000;39.97665
 188.40;   48.952;   21.987;    0.000;26.96472
 189.01;   25.977;  -34.006;    0.000;59.98288
 189.61;  -12.015;  -27.004;    0.000;14.98893
 190.21;  -21.032;  -46.009;    0.000;24.97648
 190.82;   39.972;   -3.008;    0.000;42.97913
 191.42;  -23.036;  -46.010;    0.000;22.97337
 192.03;  -22.038;  -61.010;    0.000;38.97193
 192.63;    8.957;   -7.011;    0.000;15.96841
 193.24;   -0.011;   36.997;    0.000;-37.00784
 193.84;   26.948;  -37.014;    0.000;63.96207
 194.45;   50.956;  -17.012;    0.000;67.96801
 195.05;    7.971;  -76.008;    0.000;83.97902
 195.66;   24.960;   -1.011;    0.000;25.97049
 196.26;  -29.053;   10.986;    0.000;-40.03914
 196.87;   47.953;   -4.013;    0.000;51.96553
 197.47;   11.962;   21.990;    0.000;-10.02801
 198.07;   -5.052;  -50.014;    0.000;44.96196
 198.68;    8.945;  -94.015;    0.000;102.95971
 199.28;   41.968;    9.991;    0.000;31.97642
 199.89;  -15.068;  -19.018;    0.000; 3.94991
 200.49;   40.948;   20.986;    0.000;19.96167
 201.10;   -0.041;   17.989;    0.000;-18.02992
 201.70;   -5.056;   26.985;    0.000;-32.04121
 202.31;   29.975;  -70.007;    0.000;99.98196
 202.91;   -5.025;   24.993;    0.000;-30.01845
 203.51;  -29.042;  -47.011;    0.000;17.96945
 204.12;   10.994;  -31.002;    0.000;41.99573
 204.72;   27.985;   39.996;    0.000;-12.01095
 205.33;  -20.025;  -49.007;    0.000;28.98190
 205.93;  -20.030;  -21.008;    0.000; 0.97763
 206.53;  -16.034;  -39.009;    0.000;22.97504
 207.14;  -44.033; -109.009;    0.000;64.97596
 207.74;  -13.031;   45.992;    0.000;-59.02283
 208.35;    0.961;  -50.010;    0.000;50.97175
 208.95;    2.968;   -0.009;    0.000; 2.97631
 209.55;   32.967;  206.991;    0.000;-174.02409
 210.16;  -23.038;  -10.010;    0.000;-13.02819
 210.76;   39.964;  -30.010;    0.000;69.97337
 211.37;   20.965;  -79.009;    0.000;99.97452
 211.97;   47.977;  -25.006;    0.000;72.98346
 212.57;   -5.051;  -30.014;    0.000;24.96276
 213.18;  -13.041;  -58.011;    0.000;44.97008
 213.78;  -47.046; -103.012;    0.000;55.96639
 214.38;    2.968;  -23.009;    0.000;25.97660
 214.99;   18.959;   13.989;    0.000; 4.97008
 215.59;   49.952;  -36.013;    0.000;85.96484
 216.20;  -10.053;  -27.014;    0.000;16.96138
 216.80;    0.950;  -75.013;    0.000;75.96351
 217.40;   -4.039;  -15.010;    0.000;10.97175
 218.01;   -6.056;  -26.015;    0.000;19.95896
 218.61;   37.955;  -50.012;    0.000;87.96697
 219.21;   45.967;    0.991;    0.000;44.97614
 219.82;   36.966;  186.991;    0.000;-150.02513
 220.42;   -3.036;  -65.010;    0.000;61.97377
 221.02;  -10.066;  -59.018;    0.000;48.95164
 221.63;   11.928; -120.019;    0.000;131.94737
 222.23;   13.952;  -73.013;    0.000;86.96478
 222.83;   22.964;  -20.010;    0.000;42.97360
 223.44;    4.975;  -50.007;    0.000;54.98190
 224.04;  -18.073;  -21.019;    0.000; 2.94680
 224.64;  -27.054;  -94.014;    0.000;66.96040
 225.25;    7.965;  -24.009;    0.000;31.97418
 225.85;   21.972;  -30.007;    0.000;51.97954
 226.45;   -9.048;   -8.013;    0.000;-1.03534
 227.06;    3.960;   77.989;    0.000;-74.02957
 227.66;   40.966;   97.991;    0.000;-57.02467
 228.26;   24.956;  -10.012;    0.000;34.96766
 228.87;  -10.045;  -14.012;    0.000; 3.96709
 229.47;  -28.038;   -0.010;    0.000;-28.02796
 230.07;  -17.047;  -26.013;    0.000; 8.96518
 230.68;  -37.022;    2.994;    0.000;-40.01597
 231.28;    4.949;   -4.014;    0.000; 8.96276
 231.88;    1.954;  186.988;    0.000;-185.03361
 232.48;   22.975;  -37.007;    0.000;59.98132
 233.09;  -26.029;  -13.008;    0.000;-13.02150
 233.69;  -66.037;  -32.010;    0.000;-34.02709
 234.29;   52.964;   -0.010;    0.000;52.97360
 234.90;   95.950;   15.987;    0.000;79.96351
 235.50;   13.926;  -52.020;    0.000;65.94576
 236.10;  -28.035;  -34.009;    0.000; 5.97446
 236.70;   39.953;  -28.013;    0.000;67.96530
 237.31;   -7.052; -117.014;    0.000;109.96184
 237.91;    2.950;   -0.013;    0.000; 2.96322
 238.51;  -24.030;  -61.008;    0.000;36.97821
 239.11;   56.997;   40.999;    0.000;15.99798
 239.72;  -29.057;  -33.015;    0.000; 3.95838
 240.32;  -15.018;   -4.005;    0.000;-11.01303
 240.92;   21.952;   52.987;    0.000;-31.03487
 241.53;  -53.057;   35.985;    0.000;-89.04145
 242.13;   18.958;   48.989;    0.000;-30.03078
 242.73;   11.966;   39.991;    0.000;-28.02513
 243.33;   -5.011;  -31.003;    0.000;25.99164
 243.93;   -4.050;    2.987;    0.000;-7.03695
 244.54;  -12.038;  -15.010;    0.000; 2.97204
 245.14;  -20.042;  -29.011;    0.000; 8.96945
 245.74;   28.951;   58.987;    0.000;-30.03568
 246.34;   57.955;   16.988;    0.000;40.96703
 246.95;   20.947;  -84.014;    0.000;104.96144
 247.55;   -5.045;  -41.012;    0.000;35.96674
 248.15;  -33.064;   -4.017;    0.000;-29.04658
 248.75;    4.967;   21.991;    0.000;-17.02386
 249.36;   39.937;  -53.017;    0.000;92.95383
 249.96;   -7.029;  -78.008;    0.000;70.97879
 250.56;  -14.045;   13.988;    0.000;-28.03326
 251.16;   13.965;  -68.009;    0.000;81.97441
 251.76;  -23.043;   37.988;    0.000;-61.03182
 252.37;   60.969;   41.992;    0.000;18.97752
 252.97;   44.958;  -30.011;    0.000;74.96945
 253.57;   39.962;   10.990;    0.000;28.97204
 254.17;   -2.051;   22.986;    0.000;-25.03758
 254.77;   44.969;   -5.008;    0.000;49.97694
 255.38;   -1.052;  -92.014;    0.000;90.96219
 255.98;   18.986;    4.996;    0.000;13.98985
 256.58;   52.969;   47.992;    0.000; 4.97706
 257.18;  -70.041;  -38.011;    0.000;-32.03020
 257.78;   -7.039;   23.989;    0.000;-31.02888
 258.38;  -10.039;  -46.010;    0.000;35.97175
 258.99;   19.974;  -29.007;    0.000;48.98086
 259.59;  -17.035;  -44.009;    0.000;26.97429
 260.19;   19.953;  -56.013;    0.000;75.96547
 260.79;   38.954;   27.988;    0.000;10.96639
 261.39;  -44.051;  189.986;    0.000;-234.03770
 261.99;   24.946;  -52.014;    0.000;76.96046
 262.60;    1.949;    2.986;    0.000;-1.03735
 263.20;   30.976;   -0.006;    0.000;30.98230
 263.80;   21.930;  -75.019;    0.000;96.94899
 264.40;    2.956;  -33.012;    0.000;35.96749
 265.00;   -3.039;   36.990;    0.000;-40.02836
 265.60;   -6.035;  -50.009;    0.000;43.97452
 266.20;   17.971;  -13.008;    0.000;30.97844
 266.81;   11.964; -101.010;    0.000;112.97371
 267.41;  -34.049;  -40.013;    0.000; 5.96392
 268.01;   28.972;   42.993;    0.000;-14.02058
 268.61;  -22.051;  -32.014;    0.000; 9.96270
 269.21;  -40.053;  -22.014;    0.000;-18.03879
 269.81;    0.977;  -56.006;    0.000;56.98282
 270.41;   71.962;   75.990;    0.000;-4.02784
 271.01;  -17.046;   25.988;    0.000;-43.03407
 271.62;  -10.026;    3.993;    0.000;-14.01920
 272.22;   14.970;  -44.008;    0.000;58.97787
 272.82;  -21.044;   37.988;    0.000;-59.03228
 273.42;   -9.043;   58.989;    0.000;-68.03130
 274.02;   13.965;    2.991;    0.000;10.97406
 274.62;    5.942;   -5.016;    0.000;10.95723
 275.22;   31.971;  -86.008;    0.000;117.97867
 275.82;   19.950;  -14.013;    0.000;33.96328
 276.42;    1.951;  -52.013;    0.000;53.96415
 277.02;   33.971;  -32.008;    0.000;65.97908
 277.63;    7.954;  -20.012;    0.000;27.96605
 278.23;   22.954;  -24.012;    0.000;46.96628
 278.83;  -95.052;   -5.014;    0.000;-90.03781
 279.43;  -12.050;   70.987;    0.000;-83.03655
 280.03;   -8.015;  -34.004;    0.000;25.98876
 280.63;   64.957;  -29.011;    0.000;93.96876
 281.23;  -30.041;   55.989;    0.000;-86.03009
 281.83;   26.943;  -44.015;    0.000;70.95798
 282.43;  318.957;  307.989;    0.000;10.96853
 283.03;   12.963;   67.990;    0.000;-55.02692
 283.63;   10.954;  -54.012;    0.000;64.96651
 284.23;  -18.052;  -23.014;    0.000; 4.96173
 284.83;  -34.053;  -30.014;    0.000;-4.03897
 285.43;    1.963;   16.990;    0.000;-15.02727
 286.03;   40.978;  -34.006;    0.000;74.98386
 286.63;   31.954;   25.988;    0.000; 5.96634
 287.23;  -20.038;  -31.010;    0.000;10.97227
 287.84;  -68.031;  -28.008;    0.000;-40.02271
 288.44;   13.966;    8.991;    0.000; 4.97487
 289.04;  -13.026;  -70.007;    0.000;56.98115
 289.64;  -35.034;  -41.009;    0.000; 5.97516
 290.24;  -21.077;  -53.021;    0.000;31.94357
 290.84;  -35.010;  -68.003;    0.000;32.99279
 291.44;  -12.024;  -35.006;    0.000;22.98230
 292.04;    5.984;  -23.004;    0.000;28.98836
 292.64;  -23.031;    1.992;    0.000;-25.02300
 293.24;   33.977;  -28.006;    0.000;61.98300
 293.84;  -11.048;  -61.013;    0.000;49.96507
 294.44;  -17.046;   30.988;    0.000;-48.03338
 295.04;  -18.032;  -69.008;    0.000;50.97683
 295.64;  -41.019;  -21.005;    0.000;-20.01366
 296.24;  -10.019;  -43.005;    0.000;32.98576
 296.84;  -15.026;  -52.007;    0.000;36.98115
 297.44;  -28.039;  -16.010;    0.000;-12.02848
 298.04;   33.991;  -52.003;    0.000;85.99308
 298.64;  -32.021;  -82.006;    0.000;49.98478
 299.24;    1.956;  -81.012;    0.000;82.96778
 299.84;    6.979;   72.994;    0.000;-66.01533
 300.44;   62.967;  -44.009;    0.000;106.97573
 301.04;   31.987;    2.997;    0.000;28.99055
 301.64;   34.953;  -51.012;    0.000;85.96582
 302.24;   65.960;  -12.011;    0.000;77.97095
 302.83;   11.989;  -27.003;    0.000;38.99205
 303.43;  -24.044;  -75.012;    0.000;50.96755
 304.03;   26.945;  -32.015;    0.000;58.95948
 304.63;  -44.029;  -47.008;    0.000; 2.97902
 305.23;    7.967;  -94.009;    0.000;101.97591
 305.83;  -19.036;  -85.010;    0.000;65.97325
 306.43;   14.963;  -43.010;    0.000;57.97273
 307.03;  -14.045;   80.988;    0.000;-95.03309
 307.63;   18.964;    2.990;    0.000;15.97354
 308.23;    0.957;   13.988;    0.000;-13.03165
 308.83;   -9.047;  -32.012;    0.000;22.96564
 309.43;   -8.059;  -87.016;    0.000;78.95688
 310.03;  -22.061;  -17.016;    0.000;-5.04508
 310.63;  -10.052;    7.986;    0.000;-18.03833
 311.23;   16.937;  -95.017;    0.000;111.95389
 311.83;  -36.038;   -5.010;    0.000;-31.02773
 312.43;   30.974;  -51.007;    0.000;81.98098
 313.02;   35.951;   51.987;    0.000;-16.03585
 313.62;   17.966; -116.009;    0.000;133.97533
 314.22;   14.960;  -45.011;    0.000;59.97089
 314.82;  -11.050;   55.987;    0.000;-67.03678
 315.42;   43.939;   28.984;    0.000;14.95556
 316.02;  -11.052;    5.986;    0.000;-17.03787
 316.62;   21.931;  -45.018;    0.000;66.94927
 317.22;   -8.063;  -62.017;    0.000;53.95412
 317.82;   -7.057;  -57.015;    0.000;49.95850
 318.42;   12.966;  290.991;    0.000;-278.02490
 319.01;   22.942;   33.984;    0.000;-11.04271
 319.61;  -22.063;   -4.017;    0.000;-18.04611
 320.21;    2.943;  -22.015;    0.000;24.95804
 320.81;   14.919;   11.978;    0.000; 2.94086
 321.41;   66.964;   67.990;    0.000;-1.02675
 322.01;   43.949;  -67.014;    0.000;110.96270
 322.61;  -26.073;   20.980;    0.000;-47.05367
 323.21;   49.939;   -1.016;    0.000;50.95527
 323.80;  -36.058; -111.016;    0.000;74.95717
 324.40;    3.911;  -12.024;    0.000;15.93458
 325.00;   -9.076;  -57.020;    0.000;47.94437
 325.60;  -20.074;   18.980;    0.000;-39.05442
 326.20;  -32.067;  -50.018;    0.000;17.95077
 326.80;   -5.077;   18.979;    0.000;-24.05649
 327.40;   40.907;    8.975;    0.000;31.93169
 327.99;   59.885;    1.969;    0.000;57.91601
 328.59;   -5.120;  -40.032;    0.000;34.91232
 329.19;   94.868;  476.965;    0.000;-382.09678
 329.79;   17.870;  -30.035;    0.000;47.90489
 330.39;    0.863;   78.963;    0.000;-78.10064
 330.99;  -15.130;  -52.035;    0.000;36.90460
 331.58;  -46.149;  -68.040;    0.000;21.89077
 332.18;   41.834;  -67.044;    0.000;108.87797
 332.78;   49.829;   78.954;    0.000;-29.12560
 333.38;  -49.191;   57.949;    0.000;-107.13996
 333.98;   -3.179;  -76.048;    0.000;72.86880
 334.57;   27.812;    0.950;    0.000;26.86223
 335.17;   45.823;  -59.047;    0.000;104.86996
 335.77;    3.831;  -28.045;    0.000;31.87624
 336.37;  -12.187;  100.950;    0.000;-113.13690
 336.97;   12.846;  -13.041;    0.000;25.88713
 337.56;   50.837;  -19.043;    0.000;69.88062
 338.16;  -24.155;   -1.041;    0.000;-23.11396
 338.76;  -59.124;   45.967;    0.000;-105.09096
 339.36;   16.861;  -45.037;    0.000;61.89791
 339.96;   24.868;  -64.035;    0.000;88.90304
 340.55;   27.870;   40.965;    0.000;-13.09563
 341.15;    4.867;  -42.035;    0.000;46.90270
 341.75;    8.849;   79.960;    0.000;-71.11108
 342.35;   -1.153;  -60.041;    0.000;58.88811
 342.94;   22.809;   20.949;    0.000; 1.85999
 343.54;  -49.162;  -63.043;    0.000;13.88091
 344.14;   -9.165;  -78.044;    0.000;68.87872
 344.74;  -11.178;  -44.048;    0.000;32.86915
 345.33;   21.843;   68.958;    0.000;-47.11477
 345.93;  -18.156;  -31.042;    0.000;12.88569
 346.53;  -20.139;  -25.037;    0.000; 4.89814
 347.13;   37.854;  -11.039;    0.000;48.89278
 347.72;   34.832;  -39.045;    0.000;73.87670
 348.32;   -0.143;   12.962;    0.000;-13.10451
 348.92;   39.848;  -67.040;    0.000;106.88869
 349.52;   -3.157;  -16.042;    0.000;12.88518
 350.11;   17.841;   48.958;    0.000;-31.11655
 350.71;   17.855;  -17.039;    0.000;34.89376
 351.31;   44.862;   -7.037;    0.000;51.89878
 351.91;  -23.140;  -27.037;    0.000; 3.89757
 352.50;   10.858;    4.962;    0.000; 5.89601
 353.10;   35.854;   14.961;    0.000;20.89313
 353.70;  -52.124;   57.967;    0.000;-110.09079
 354.29;   36.852;  432.961;    0.000;-396.10825
 354.89;   12.834;    0.956;    0.000;11.87797
 355.49;    5.872;  -27.034;    0.000;32.90621
 356.09;   18.839;   13.957;    0.000; 4.88212
 356.68;  -61.141;  -57.038;    0.000;-4.10330
 357.28;   20.829;  -49.046;    0.000;69.87474
 357.88;   54.833;   16.955;    0.000;37.87757
 358.47;   43.850;  -93.040;    0.000;136.89007
 359.07;   27.859;   52.962;    0.000;-25.10318
 359.67;  -28.144;  -62.038;    0.000;33.89457
 360.26;  -27.146;  -24.039;    0.000;-3.10699
 360.86;   -8.158;  -61.042;    0.000;52.88425
 361.46;  -31.127;   17.966;    0.000;-49.09332
 362.05;   22.843;   46.958;    0.000;-24.11523
 362.65;   22.871;  -39.034;    0.000;61.90523
 363.25;   -5.129; -113.035;    0.000;107.90506
 363.84;   -9.128;  -70.034;    0.000;60.90633
 364.44;  -31.138;   -8.037;    0.000;-23.10111
 365.04;   21.860;  -20.037;    0.000;41.89751
 365.63;  -24.136;  -71.036;    0.000;46.90045
 366.23;    7.873;  -30.034;    0.000;37.90691
 366.83;  -40.136;  -20.036;    0.000;-20.09938
 367.42;   22.850;  -52.040;    0.000;74.89007
 368.02;  -36.136;  -71.036;    0.000;34.89999
 368.62;   46.847;   16.959;    0.000;29.88788
 369.21;  -17.150;   -8.040;    0.000;-9.11027
 369.81;   14.853;  261.961;    0.000;-247.10779
 370.41;   21.889;  -75.029;    0.000;96.91895
 371.00;   32.832;  -67.045;    0.000;99.87687
 371.60;   13.838;   -5.043;    0.000;18.88154
 372.19;   31.854;  -38.039;    0.000;69.89290
 372.79;   45.875;  -72.033;    0.000;117.90852
 373.39;   55.866;    2.964;    0.000;52.90166
 373.98;    8.847;  -31.041;    0.000;39.88794
 374.58;    3.860;   -2.037;    0.000; 5.89711
 375.17;   26.823;  -58.047;    0.000;84.87013
 375.77;   41.846;  157.959;    0.000;-116.11269
 376.37;   10.844;  -40.042;    0.000;50.88552
 376.96;   56.847;   40.959;    0.000;15.88754
 377.56;   26.862;   49.963;    0.000;-23.10088
 378.15;   47.859;   18.962;    0.000;28.89647
 378.75;   61.846;   17.959;    0.000;43.88679
 379.35;   95.849;  -64.040;    0.000;159.88933
 379.94;  134.841;   36.958;    0.000;97.88322
 380.54;  113.835;  -71.044;    0.000;184.87878
 381.13;  144.845;   17.959;    0.000;126.88656
 381.73;  185.872;  -29.034;    0.000;214.90593
 382.32;  176.882;  -23.031;    0.000;199.91365
 382.92;  265.848;  -37.040;    0.000;302.88886
 383.52;  295.859;  -33.038;    0.000;328.89642
 384.11;  290.848;  -29.041;    0.000;319.88840
 384.71;  355.834;  -88.044;    0.000;443.87820
 385.30;  478.839;    2.957;    0.000;475.88224
 385.90;  637.850;   57.960;    0.000;579.88973
 386.49;  662.837;  -88.044;    0.000;750.88022
 387.09;  819.831;   21.955;    0.000;797.87584
 387.68;  926.855;  -44.039;    0.000;970.89376
 388.28; 1113.854;  -38.039;    0.000;1151.89273
 388.87; 1333.874;  286.966;    0.000;1046.90754
 389.47; 1541.836;  -33.044;    0.000;1574.87981
 390.07; 1850.849;    0.960;    0.000;1849.88892
 390.66; 2251.860;  -55.037;    0.000;2306.89768
 391.26; 2545.841; -127.042;    0.000;2672.88327
 391.85; 2793.847;  -36.041;    0.000;2829.88754
 392.45; 3381.843;  -80.042;    0.000;3461.88500
 393.04; 3801.866;  -55.036;    0.000;3856.90201
 393.64; 4236.860;  -83.037;    0.000;4319.89705
 394.23; 4999.850;  -25.040;    0.000;5024.88990
 394.83; 5667.860;  -82.037;    0.000;5749.89711
 395.42; 6437.825;  -29.047;    0.000;6466.87174
 396.02; 7533.864;   82.964;    0.000;7450.90010
 396.61; 8610.832;  -37.045;    0.000;8647.87693
 397.21; 9414.849;  -30.040;    0.000;9444.88915
 397.80;12158.853;12139.961;    0.000;18.89203
 398.40;12337.849;  107.960;    0.000;12229.88950
 398.99;13259.850;  -34.040;    0.000;13293.89007
 399.59;14965.837;  -18.043;    0.000;14983.88045
 400.18;16257.852;  -10.039;    0.000;16267.89157
 400.78;17655.855;  -52.039;    0.000;17707.89330
 401.37;19099.873;  -85.034;    0.000;19184.90679
 401.96;20038.844;  -81.042;    0.000;20119.88558
 402.56;20915.854; -102.039;    0.000;21017.89325
 403.15;20955.853;  -31.039;    0.000;20986.89203
 403.75;21762.866;  -19.036;    0.000;21781.90160
 404.34;20920.846;   -2.041;    0.000;20922.88685
 404.94;20759.849;  -82.040;    0.000;20841.88933
 405.53;20262.842; -111.042;    0.000;20373.88408
 406.13;18940.839;   30.957;    0.000;18909.88177
 406.72;18177.869;  -57.035;    0.000;18234.90420
 407.32;16674.850;  -22.040;    0.000;16696.88984
 407.91;15710.855;   38.961;    0.000;15671.89336
 408.50;14597.878;  -31.032;    0.000;14628.91083
 409.10;13238.855;  -48.039;    0.000;13286.89348
 409.69;12069.867;   47.965;    0.000;12021.90270
 410.29;10891.864;  -35.036;    0.000;10926.90022
 410.88;10323.856;  -48.038;    0.000;10371.89428
 411.47; 9435.865;  -97.036;    0.000;9532.90114
 412.07; 8577.865;  -79.036;    0.000;8656.90085
 412.66; 8015.864;  -32.036;    0.000;8047.90005
 413.26; 7812.871;  -29.034;    0.000;7841.90547
 413.85; 7432.874;  -52.034;    0.000;7484.90737
 414.45; 6866.857;   99.962;    0.000;6766.89515
 415.04; 6267.872; -105.034;    0.000;6372.90633
 415.63; 5948.857;  -21.038;    0.000;5969.89503
 416.23; 5456.857;  -22.038;    0.000;5478.89480
 416.82; 5324.852;   -3.040;    0.000;5327.89117
 417.41; 4751.881;  -98.032;    0.000;4849.91238
 418.01; 4512.860;  -60.037;    0.000;4572.89745
 418.60; 3868.850;  -20.040;    0.000;3888.89019
 419.20; 3660.866;  -76.036;    0.000;3736.90143
 419.79; 3110.874;    6.966;    0.000;3103.90725
 420.38; 2784.868;  -44.035;    0.000;2828.90327
 420.98; 2602.874;  -92.034;    0.000;2694.90754
 421.57; 2308.863;  -91.037;    0.000;2399.89941
 422.16; 2152.882;   -8.031;    0.000;2160.91342
 422.76; 1879.883;  -44.031;    0.000;1923.91446
 423.35; 1806.869;  -92.035;    0.000;1898.90391
 423.94; 1537.880;  148.968;    0.000;1388.91227
 424.54; 1462.886;  -39.030;    0.000;1501.91676
 425.13; 1350.858;   46.962;    0.000;1303.89618
 425.73; 1276.876;   29.967;    0.000;1246.90898
 426.32; 1191.868;  -33.035;    0.000;1224.90310
 426.91; 1125.888;    8.970;    0.000;1116.91780
 427.51; 1029.894;    8.972;    0.000;1020.92224
 428.10; 1011.882;   -0.031;    0.000;1011.91377
 428.69;  888.881;  -42.032;    0.000;930.91296
 429.28;  826.859; -104.038;    0.000;930.89676
 429.88;  871.871;  -31.034;    0.000;902.90541
 430.47;  703.893;  -27.029;    0.000;730.92161
 431.06;  740.882;   -1.031;    0.000;741.91354
 431.66;  640.888;  -35.030;    0.000;675.91780
 432.25;  523.882;  -61.031;    0.000;584.91365
 432.84;  538.897; -103.027;    0.000;641.92478
 433.44;  524.869;  -51.035;    0.000;575.90391
 434.03;  454.896;  -58.028;    0.000;512.92408
 434.62;  458.883;  -27.031;    0.000;485.91434
 435.22;  456.915;  -18.023;    0.000;474.93734
 435.81;  389.888;  -39.030;    0.000;428.91815
 436.40;  286.902;  -79.026;    0.000;365.92812
 436.99;  337.884;  -28.031;    0.000;365.91457
 437.59;  321.889; -101.030;    0.000;422.91832
 438.18;  272.899;    1.973;    0.000;270.92622
 438.77;  241.902; -101.026;    0.000;342.92818
 439.36;  209.885;  -47.031;    0.000;256.91532
 439.96;  259.913;   61.977;    0.000;197.93602
 440.55;  177.893;  -66.029;    0.000;243.92149
 441.14;  204.901;    2.974;    0.000;201.92760
 441.73;  201.868;  -20.035;    0.000;221.90339
 442.33;  159.879; -111.032;    0.000;270.91117
 442.92;  188.908;   23.975;    0.000;164.93250
 443.51;  175.893;  -23.029;    0.000;198.92120
 444.10;  118.886;  -42.030;    0.000;160.91624
 444.70;  163.909;  -64.024;    0.000;227.93336
 445.29;  132.879;  -75.032;    0.000;207.91146
 445.88;  126.889;  -94.030;    0.000;220.91861
 446.47;  128.909;   22.976;    0.000;105.93354
 447.07;   89.905;  -87.025;    0.000;176.93014
 447.66;   92.886;   -5.030;    0.000;97.91624
 448.25;   92.899;    6.973;    0.000;85.92616
 448.84;   79.896;  -22.028;    0.000;101.92397
 449.43;   68.922;  -60.021;    0.000;128.94316
 450.03;  105.872;   58.966;    0.000;46.90598
 450.62;   44.883; -126.031;    0.000;170.91434
 451.21;  118.877;  -56.033;    0.000;174.91013
 451.80;   48.898;   56.973;    0.000;-8.07488
 452.39;   52.905;  -91.025;    0.000;143.93037
 452.99;   63.913;  -46.023;    0.000;109.93619
 453.58;   68.910;  -42.024;    0.000;110.93406
 454.17;   97.930;  -50.019;    0.000;147.94893
 454.76;   38.921;   26.979;    0.000;11.94190
 455.35;   46.912;   32.976;    0.000;13.93532
 455.95;   36.898;  -28.027;    0.000;64.92535
 456.54;   38.921;  -33.021;    0.000;71.94236
 457.13;   37.901;  -52.026;    0.000;89.92725
 457.72;   -4.072;  -46.019;    0.000;41.94720
 458.31;   27.924; -109.020;    0.000;136.94437
 458.90;   36.905;   25.975;    0.000;10.93014
 459.50;   55.900;   -2.027;    0.000;57.92697
 460.09;   25.894;  -72.028;    0.000;97.92212
 460.68;   58.908;  -92.024;    0.000;150.93285
 461.27;   64.905;  -24.025;    0.000;88.93019
 461.86;    6.914;  -20.023;    0.000;26.93688
 462.45;   12.946;    2.986;    0.000; 9.96034
 463.04;   41.903;  -57.026;    0.000;98.92852
 463.64;   27.935;   69.983;    0.000;-42.04773
 464.23;    2.906;   44.975;    0.000;-42.06877
 464.82;   13.916;  -30.022;    0.000;43.93838
 465.41;   40.947;  -50.014;    0.000;90.96092
 466.00;  -18.084;  -48.022;    0.000;29.93873
 466.59;   -7.059;    7.984;    0.000;-15.04352
 467.18;   13.933;  -41.018;    0.000;54.95083
 467.77;   81.921;  -56.021;    0.000;137.94241
 468.37;   10.905;  -63.025;    0.000;73.93042
 468.96;   21.905;  -33.025;    0.000;54.93019
 469.55;   12.915;   35.977;    0.000;-23.06254
 470.14;    7.906;  -10.025;    0.000;17.93106
 470.73;   67.897;   15.972;    0.000;51.92426
 471.32;   13.921;  -45.021;    0.000;58.94207
 471.91;   -6.074;  -52.020;    0.000;45.94599
 472.50;    0.894;  -75.028;    0.000;75.92201
 473.09;   -5.059; -113.016;    0.000;107.95671
 473.68;   30.898;   42.973;    0.000;-12.07476
 474.27;   31.936;  -68.017;    0.000;99.95325
 474.86;   19.917;  -87.022;    0.000;106.93947
 475.46;  -13.072;  -19.019;    0.000; 5.94743
 476.05;   33.928;   77.981;    0.000;-44.05309
 476.64;   37.931;  -48.018;    0.000;85.94950
 477.23;    6.921;  -91.021;    0.000;97.94241
 477.82;  -15.072; -115.019;    0.000;99.94720
 478.41;   -0.071;  -83.019;    0.000;82.94766
 479.00;   -8.078;  -19.021;    0.000;10.94265
 479.59;   41.909;   22.976;    0.000;18.93348
 480.18;  -34.064;   62.983;    0.000;-97.04704
 480.77;    4.935;  -51.017;    0.000;55.95227
 481.36;   34.935;  -89.017;    0.000;123.95268
 481.95;   20.920;   10.979;    0.000; 9.94120
 482.54;  -62.097; -106.026;    0.000;43.92904
 483.13;  -38.082;  -40.022;    0.000; 1.93988
 483.72;   -5.060;  -49.016;    0.000;43.95608
 484.31;  -18.071; -102.019;    0.000;83.94824
 484.90;   26.932;  -20.018;    0.000;46.95008
 485.49;  -28.050;  -60.013;    0.000;31.96351
 486.08;  -32.061;  -44.016;    0.000;11.95521
 486.67;   -0.055;  -26.015;    0.000;25.95953
 487.26;   55.943;  -19.015;    0.000;74.95844
 487.85;   29.931;  -87.018;    0.000;116.94922
 488.44;  -15.082;  -98.022;    0.000;82.94005
 489.03;   10.936;   46.983;    0.000;-36.04669
 489.62;  -37.056;  -39.015;    0.000; 1.95913
 490.21;  -55.066; -101.018;    0.000;45.95187
 490.80;   81.943;  -51.015;    0.000;132.95792
 491.39;   66.934; -120.018;    0.000;186.95170
 491.98;   25.940;   -0.016;    0.000;25.95613
 492.57;  -42.046;  -63.012;    0.000;20.96622
 493.16;   46.924;  -42.020;    0.000;88.94449
 493.75;   23.926;  -77.020;    0.000;100.94553
 494.34;    7.931;   -8.019;    0.000;15.94904
 494.93;   13.949;  -57.014;    0.000;70.96230
 495.52;  -18.076;  -73.020;    0.000;54.94443
 496.11;   51.927;  -48.019;    0.000;99.94639
 496.70;   -5.093;  -84.025;    0.000;78.93215
 497.29;  -15.071;  -31.019;    0.000;15.94772
 497.88;   31.935;   13.983;    0.000;17.95239
 498.47;  -38.063;   27.983;    0.000;-66.04629
 499.06;   -5.075;   27.980;    0.000;-33.05534
 499.64;   -6.060;  -57.016;    0.000;50.95585
 500.23;    4.930;  -57.019;    0.000;61.94864
 500.82;  -13.067;  -52.018;    0.000;38.95054
 501.41;   -8.082;   29.978;    0.000;-38.06035
 502.00;   -2.075;  -83.020;    0.000;80.94530
 502.59;   11.934;  -40.018;    0.000;51.95187
 503.18;  -15.069;  -28.018;    0.000;12.94968
 503.77;  -48.068; -122.018;    0.000;73.94991
 504.36;    0.936;   45.983;    0.000;-45.04709
 504.95;  -10.067; -141.018;    0.000;130.95106
 505.54;   -3.071;  -93.019;    0.000;89.94812
 506.12;   16.932;   99.982;    0.000;-83.04992
 506.71;   22.932;  -54.018;    0.000;76.95020
 507.30;    6.914;   -3.023;    0.000; 9.93711
 507.89;   39.915;  -52.023;    0.000;91.93746
 508.48;    6.938;  -72.017;    0.000;78.95458
 509.07;  -15.093;   -7.025;    0.000;-8.06848
 509.66;   47.940;   10.984;    0.000;36.95596
 510.25;   13.916;  -83.022;    0.000;96.93838
 510.84;   12.925;  -32.020;    0.000;44.94495
 511.42;   23.931;  -31.018;    0.000;54.94950
 512.01;   42.964;  108.990;    0.000;-66.02617
 512.60;   -1.074;  -16.020;    0.000;14.94605
 513.19;   21.924;  -75.020;    0.000;96.94449
 513.78;  -27.079;  -91.021;    0.000;63.94201
 514.37;   42.940;  -35.016;    0.000;77.95619
 514.95;   -2.049;  -75.013;    0.000;72.96438
 515.54;   17.935;   13.983;    0.000; 3.95227
 516.13;   59.926;  -89.020;    0.000;148.94605
 516.72;   46.938;  -33.016;    0.000;79.95487
 517.31;   35.940;  -29.016;    0.000;64.95596
 517.90;   13.943;  -19.015;    0.000;32.95855
 518.48;   35.937;  -68.017;    0.000;103.95394
 519.07;   36.923;  -16.021;    0.000;52.94328
 519.66;   27.947;  125.986;    0.000;-98.03868
 520.25;   34.943;  -34.015;    0.000;68.95792
 520.84;   -4.069;    0.981;    0.000;-5.05090
 521.43;   36.945;  -56.015;    0.000;92.95982
 522.01;   50.944;   62.985;    0.000;-12.04098
 522.60;   44.936;    8.983;    0.000;35.95285
 523.19;  -16.061;   -4.016;    0.000;-12.04467
 523.78;  -11.070;  -31.019;    0.000;19.94858
 524.37;   28.921;   -7.021;    0.000;35.94224
 524.95;  -24.052;  -52.014;    0.000;27.96207
 525.54;   26.929;    0.981;    0.000;25.94818
 526.13;    2.934;  -80.018;    0.000;82.95123
 526.72;  -29.040;   10.989;    0.000;-40.02940
 527.30;   80.946;  -53.015;    0.000;133.96005
 527.89;   36.928;  -69.019;    0.000;105.94749
 528.48;   -6.052;    2.986;    0.000;-9.03822
 529.07;   45.931;   -3.018;    0.000;48.94974
 529.65;   -8.047;  113.987;    0.000;-122.03459
 530.24;   54.931;   -0.018;    0.000;54.94939
 530.83;   14.950;  -70.013;    0.000;84.96368
 531.42;   21.945;   -4.015;    0.000;25.95965
 532.00;   11.937;  -25.017;    0.000;36.95406
 532.59;   14.959;  -12.011;    0.000;26.96968
 533.18;   -2.042;   11.989;    0.000;-14.03101
 533.77;   59.935;   47.983;    0.000;11.95233
 534.35;  -16.056;   -8.015;    0.000;-8.04121
 534.94;  -71.055;  -60.015;    0.000;-11.04006
 535.53;  -52.040;   67.989;    0.000;-120.02905
 536.12;  -28.072;  -19.019;    0.000;-9.05280
 536.70;    2.963;  -94.010;    0.000;96.97314
 537.29;   44.952;  -25.013;    0.000;69.96461
 537.88;   36.952;  -46.013;    0.000;82.96495
 538.46;  -41.059;  -77.016;    0.000;35.95659
 539.05;   10.953;  -27.013;    0.000;37.96559
 539.64;    1.962;   13.990;    0.000;-12.02790
 540.23;   -1.053;   17.986;    0.000;-19.03891
 540.81;   26.957;  101.989;    0.000;-75.03118
 541.40;  -36.069;  -76.018;    0.000;39.94950
 541.99;    5.947;  -35.014;    0.000;40.96109
 542.57;   59.952;  -71.013;    0.000;130.96484
 543.16;  -20.062;  -16.016;    0.000;-4.04513
 543.75;  -28.032;   10.992;    0.000;-39.02311
 544.33;   18.951;   54.987;    0.000;-36.03574
 544.92;   37.967;    8.991;    0.000;28.97602
 545.51;  -27.051;   26.986;    0.000;-54.03747
 546.09;   16.940;    1.984;    0.000;14.95579
 546.68;   20.942;   19.984;    0.000; 0.95734
 547.27;  -42.038;  -14.010;    0.000;-28.02813
 547.85;   -6.043;   -3.012;    0.000;-3.03176
 548.44;  -11.036;  -54.010;    0.000;42.97325
 549.03;   -7.035;  -28.009;    0.000;20.97469
 549.61;   34.940;  -64.016;    0.000;98.95596
 550.20;   11.958;  -62.011;    0.000;73.96933
 550.78;  -12.052;   54.986;    0.000;-67.03799
 551.37;   -7.022;  -76.006;    0.000;68.98415
 551.96;    6.967;  -30.009;    0.000;36.97579
 552.54;  -18.074;  -55.020;    0.000;36.94582
 553.13;   36.943;  -59.015;    0.000;95.95821
 553.72;   32.952;  -92.013;    0.000;124.96461
 554.30;    2.977;   47.994;    0.000;-45.01677
 554.89;  -32.024;  -54.006;    0.000;21.98225
 555.47;    5.958;  -11.011;    0.000;16.96887
 556.06;   12.946;  -39.014;    0.000;51.96040
 556.65;   46.955;   -6.012;    0.000;52.96709
 557.23;   21.953;  -27.013;    0.000;48.96553
 557.82;   26.965;  -93.009;    0.000;119.97452
 558.40;  -20.043;  -89.011;    0.000;68.96870
 558.99;  -29.072;  -39.019;    0.000; 9.94685
 559.58;   25.943;  -62.015;    0.000;87.95815
 560.16;   -2.071;  -99.019;    0.000;96.94818
 560.75;    9.939;  -70.016;    0.000;79.95492
 561.33;   56.957;   51.988;    0.000; 4.96835
 561.92;    5.942;  -69.015;    0.000;74.95763
 562.50;  -12.039;   12.990;    0.000;-25.02882
 563.09;  -20.047;  -39.013;    0.000;18.96518
 563.68;   -8.044;  -31.012;    0.000;22.96766
 564.26;   -9.052;  -95.014;    0.000;85.96213
 564.85;   17.953;  -18.012;    0.000;35.96582
 565.43;   -1.053;  -27.014;    0.000;25.96109
 566.02;   12.950;  -49.013;    0.000;61.96351
 566.60;  -17.037;   -5.010;    0.000;-12.02732
 567.19;   35.947;  -91.014;    0.000;126.96080
 567.77;   -0.026;  -96.007;    0.000;95.98069
 568.36;   -6.031;   50.992;    0.000;-57.02265
 568.94; -101.041;  -64.011;    0.000;-37.02974
 569.53;   45.956;    1.988;    0.000;43.96795
 570.11;   24.976;  -45.006;    0.000;69.98213
 570.70;  -13.040;  -62.011;    0.000;48.97037
 571.28;  -26.067;   59.982;    0.000;-86.04888
 571.87;   -8.024;  -56.007;    0.000;47.98207
 572.45;  -24.035;  -62.009;    0.000;37.97441
 573.04;  -21.062;  -66.016;    0.000;44.95463
 573.62;   11.961; -112.011;    0.000;123.97106
 574.21;  -14.044;   51.988;    0.000;-66.03240
 574.79;   40.930;    8.981;    0.000;31.94881
 575.38;   38.960;    0.989;    0.000;37.97054
 575.96;  -16.025;  -76.007;    0.000;59.98138
 576.55;   -1.034;  -62.009;    0.000;60.97539
 577.13;   21.972;   14.993;    0.000; 6.97977
 577.72;   -5.037; -121.010;    0.000;115.97302
 578.30;  -46.050;  -53.013;    0.000; 6.96311
 578.89;   22.977;  -90.006;    0.000;112.98300
 579.47;   -4.049;  -44.013;    0.000;39.96432
 580.06;  -38.059;  -24.016;    0.000;-14.04323
 580.64;  -84.039;  -72.010;    0.000;-12.02859
 581.23;   -8.039;  -48.011;    0.000;39.97106
 581.81;   33.953;   69.987;    0.000;-36.03459
 582.39;  -33.038;  -32.010;    0.000;-1.02767
 582.98;   21.940;  -45.016;    0.000;66.95636
 583.56;  -67.065;  -24.017;    0.000;-43.04756
 584.15;    0.949;   18.986;    0.000;-18.03735
 584.73;  -28.063;  -21.017;    0.000;-7.04635
 585.32;  -18.050;   32.987;    0.000;-51.03701
 585.90;   19.938;  191.983;    0.000;-172.04577
 586.48;  -15.044;  -35.012;    0.000;19.96743
 587.07;  -25.043;   15.989;    0.000;-41.03118
 587.65;  -13.043;   45.989;    0.000;-59.03142
 588.24;  -30.038;    2.990;    0.000;-33.02801
 588.82;  -29.041;  -59.011;    0.000;29.96974
 589.41;  250.965; 1498.991;    0.000;-1248.02571
 589.99;   23.946;   -7.014;    0.000;30.96046
 590.57;  -38.028; -131.007;    0.000;92.97948
 591.16;  -40.056;   51.985;    0.000;-92.04110
 591.74;   -8.040;  -35.011;    0.000;26.97054
 592.32;  -26.034;   11.991;    0.000;-38.02461
 592.91;  -71.057;   62.985;    0.000;-134.04214
 593.49;  -46.033;  -53.009;    0.000; 6.97608
 594.08;   -7.052;  -62.014;    0.000;54.96161
 594.66;  -47.034;   34.991;    0.000;-82.02502
 595.24;  -22.031;   -2.008;    0.000;-20.02300
 595.83;  -61.046;  -90.012;    0.000;28.96605
 596.41;   45.981;  -24.005;    0.000;69.98582
 596.99;  -25.031;    9.992;    0.000;-35.02248
 597.58;  -33.036;  -36.010;    0.000; 2.97383
 598.16;   17.937;  -28.017;    0.000;45.95360
 598.74;   11.962;   78.990;    0.000;-67.02796
 599.33;   11.951;  -39.013;    0.000;50.96409
 599.91;   -4.053;  -51.014;    0.000;46.96149
 600.49;   -6.058;  -41.015;    0.000;34.95740
 601.08;  -22.033;   25.991;    0.000;-48.02386
 601.66;  -15.034;  -92.009;    0.000;76.97498
 602.24;  -39.029;  -81.008;    0.000;41.97902
 602.83;  -21.030;  -43.008;    0.000;21.97810
 603.41;   -0.033;   -8.009;    0.000; 7.97556
 603.99;  -22.082;  -24.022;    0.000; 1.93999
 604.58;    4.961;   -0.010;    0.000; 4.97164
 605.16;   12.953;  -42.013;    0.000;54.96524
 605.74;  -28.040;  -63.011;    0.000;34.97054
 606.33;    2.964;  -19.010;    0.000;21.97360
 606.91;    1.947;  -20.014;    0.000;21.96092
 607.49;  -27.048;  -57.013;    0.000;29.96501
 608.07;   24.968;    8.992;    0.000;15.97665
 608.66;  -25.036;  -87.010;    0.000;61.97354
 609.24;  -14.034;  -61.009;    0.000;46.97481
 609.82;  -64.044;  -27.012;    0.000;-37.03211
 610.41;   36.958;  -48.011;    0.000;84.96887
 610.99;  -35.037; -103.010;    0.000;67.97250
 611.57;  -46.024;  -25.006;    0.000;-21.01729
 612.15;   -2.042;  -40.011;    0.000;37.96893
 612.74;   22.977;   34.994;    0.000;-12.01706
 613.32;   -5.041;  -37.011;    0.000;31.97014
 613.90;   10.964;   22.990;    0.000;-12.02617
 614.48;  -16.046;  -46.012;    0.000;29.96599
 615.07;  -74.062;  -24.017;    0.000;-50.04565
 615.65;  -40.018;  -18.005;    0.000;-22.01303
 616.23;    3.960;  -70.011;    0.000;73.97031
 616.81;   45.930; -112.019;    0.000;157.94864
 617.40;   -9.087;  -59.023;    0.000;49.93642
 617.98;  -28.102;  -17.027;    0.000;-11.07488
 618.56;  -41.064; -157.017;    0.000;115.95279
 619.14;  -53.075;  -48.020;    0.000;-5.05476
 619.72;   25.926;  -76.020;    0.000;101.94593
 620.31;   -8.057;   16.985;    0.000;-25.04196
 620.89;   18.952;   27.987;    0.000;-9.03493
 621.47;   35.949;  -84.014;    0.000;119.96282
 622.05;  -34.047;  -88.013;    0.000;53.96547
 622.63;  -12.060; -105.016;    0.000;92.95631
 623.22;   -5.030;  -55.008;    0.000;49.97787
 623.80;   13.938;  -27.017;    0.000;40.95423
 624.38;   26.959;   93.989;    0.000;-67.03032
 624.96;   41.940;  -55.016;    0.000;96.95636
 625.54;    6.945;  -58.015;    0.000;64.95977
 626.13;   51.967;  -33.009;    0.000;84.97556
 626.71;   23.952;  396.987;    0.000;-373.03528
 627.29;   13.921;  -58.021;    0.000;71.94236
 627.87;   43.950;  -37.013;    0.000;80.96351
 628.45;    1.952;  -74.013;    0.000;75.96507
 629.03;  -23.055;   33.985;    0.000;-57.04000
 629.62;  -27.056;  -39.015;    0.000;11.95867
 630.20;    5.946; -111.014;    0.000;116.96046
 630.78;  -35.043;   23.988;    0.000;-59.03170
 631.36;   -8.065;  -47.017;    0.000;38.95221
 631.94;   20.959;    5.989;    0.000;14.96985
 632.52;  -73.035;    6.991;    0.000;-80.02582
 633.10;   25.935;  -19.017;    0.000;44.95244
 633.68;   20.940;  -86.016;    0.000;106.95602
 634.27;  -37.056;  -31.015;    0.000;-6.04075
 634.85;   34.938;  -75.017;    0.000;109.95435
 635.43;   13.919;  -78.022;    0.000;91.94063
 636.01;  -18.047;  -77.013;    0.000;58.96518
 636.59;  -47.052;  -60.014;    0.000;12.96201
 637.17;   25.907;    8.975;    0.000;16.93204
 637.75;  -36.067;  -61.018;    0.000;24.95072
 638.33;  -24.069;  -73.018;    0.000;48.94922
 638.91;   -2.063;   19.983;    0.000;-22.04611
 639.50;   22.917;  -84.022;    0.000;106.93878
 640.08;  -56.058;  -99.016;    0.000;42.95727
 640.66;  -19.058; -116.015;    0.000;96.95738
 641.24;  -45.058;   31.985;    0.000;-77.04252
 641.82;    9.942;  -34.015;    0.000;43.95759
 642.40;    3.942;  -31.015;    0.000;34.95769
 642.98;   -3.058;  -39.015;    0.000;35.95779
 643.56;  -35.057;  -69.015;    0.000;33.95790
 644.14;   31.943;  -16.015;    0.000;47.95800
 644.72;  -18.057;  -36.015;    0.000;17.95811
 645.30;    2.943;  -19.015;    0.000;21.95821
 645.88;  -25.057;  -93.015;    0.000;67.95832
 646.46;  -27.057;  -46.015;    0.000;18.95842
 647.04;  -23.057;  -31.015;    0.000; 7.95853
 647.62;  -12.056;   43.985;    0.000;-56.04137
 648.20;    5.944;  -27.015;    0.000;32.95874
 648.78;  -36.056;   13.985;    0.000;-50.04116
 649.36;  -37.056;   -2.015;    0.000;-35.04105
 649.94;  -39.056;  -51.015;    0.000;11.95905
 650.52;  -13.056; -105.015;    0.000;91.95916
 651.11;  -56.056;  -67.015;    0.000;10.95926
 651.69;   -7.055;  -26.015;    0.000;18.95937
 652.27;   13.945;  -61.015;    0.000;74.95947
 652.85;   12.945; -143.015;    0.000;155.95958
 653.43;    9.945;  -46.015;    0.000;55.95968
 654.01;  -43.055;  -71.015;    0.000;27.95978
 654.59;   18.945;  -81.015;    0.000;99.95989
 655.17;  -44.055; -112.015;    0.000;67.95999
 655.74;  -17.054;  -69.015;    0.000;51.96010
 656.32;   13.946;  -12.014;    0.000;25.96020
 656.90;   -3.054;  -51.014;    0.000;47.96031
 657.48;    9.946;   77.986;    0.000;-68.03959
 658.06;  -13.054;  -74.014;    0.000;60.96052
 658.64;  -62.054;  -34.014;    0.000;-28.03938
 659.22;  -18.054; -116.014;    0.000;97.96073
 659.80;   -9.053;  -73.014;    0.000;63.96083
 660.38;  -38.053;  -45.014;    0.000; 6.96094
 660.96;  -42.053;  -94.014;    0.000;51.96104
 661.54;   19.947;  -69.014;    0.000;88.96115
 662.12;  -50.053;   -9.014;    0.000;-41.03875
 662.70;   17.947;  -52.014;    0.000;69.96136
 663.28;  -50.053;   -4.014;    0.000;-46.03854
 663.86;   -6.052;   -7.014;    0.000; 0.96157
 664.44;  -43.052;   -8.014;    0.000;-35.03833
 665.02;    3.948;   -0.014;    0.000; 3.96177
 665.60;  -20.052;  -41.014;    0.000;20.96188
 666.18;  -34.052;  -10.014;    0.000;-24.03802
 666.75;  -42.052;   40.986;    0.000;-83.03791
 667.33;   42.948;  -70.014;    0.000;112.96219
 667.91;    2.949;  130.986;    0.000;-128.03770
 668.49;  -65.051;    9.986;    0.000;-75.03760
 669.07;  -20.051;  -12.014;    0.000;-8.03749
 669.65;  -52.051;  -49.014;    0.000;-3.03739
 670.23;  -60.051;  -74.014;    0.000;13.96272
 670.81;   -0.051;  -28.014;    0.000;27.96282
 671.39;   33.949;  -84.013;    0.000;117.96293
 671.97;   40.950;  -20.013;    0.000;60.96303
 672.54;  -35.050;  -32.013;    0.000;-3.03686
 673.12;   20.950;  -13.013;    0.000;33.96324
 673.70;  -51.050;  -25.013;    0.000;-26.03665
 674.28;  -14.050;  -12.013;    0.000;-2.03655
 674.86;  -11.050;  -77.013;    0.000;65.96355
 675.44;   -7.050;  -28.013;    0.000;20.96366
 676.02;    6.951;   23.987;    0.000;-17.03624
 676.59;   -3.049;  -26.013;    0.000;22.96387
 677.17;   -6.049;  -27.013;    0.000;20.96397
 677.75;  -37.049;  -50.013;    0.000;12.96408
 678.33;  -73.049; -119.013;    0.000;45.96418
 678.91;  -50.049;  -56.013;    0.000; 5.96429
 679.49;  -33.049;  -52.013;    0.000;18.96439
 680.06;    5.952;  -79.013;    0.000;84.96450
 680.64;  -16.048;  -84.013;    0.000;67.96460
 681.22;  -68.048;  -77.013;    0.000; 8.96471
 681.80;  -18.048; -101.013;    0.000;82.96481
 682.38;   -2.048;   -0.013;    0.000;-2.03508
 682.96;  -38.048;    8.987;    0.000;-47.03498
 683.53;  -35.048;    1.987;    0.000;-37.03487
 684.11;  -21.047;  -52.013;    0.000;30.96523
 684.69;  -16.047;  -68.013;    0.000;51.96534
 685.27;  -36.047;   28.987;    0.000;-65.03456
 685.85;    5.953;  -27.013;    0.000;32.96554
 686.42;   24.953;  -34.012;    0.000;58.96565
 687.00;  -30.047;  -46.012;    0.000;15.96575
 687.58;   -7.047;  -49.012;    0.000;41.96586
 688.16;    4.954;  -93.012;    0.000;97.96596
 688.73;  -12.046;  -67.012;    0.000;54.96607
 689.31;  -39.046;   48.988;    0.000;-88.03383
 689.89;  -34.046;  -28.012;    0.000;-6.03372
 690.47;   20.954;   71.988;    0.000;-51.03362
 691.04;  -21.046;  -14.012;    0.000;-7.03351
 691.62;  -31.046;   32.988;    0.000;-64.03341
 692.20;   44.955;  -93.012;    0.000;137.96670
 692.78;   19.955;   -4.012;    0.000;23.96680
 693.35;   -9.045;  -23.012;    0.000;13.96691
 693.93;   13.955;  -83.012;    0.000;96.96701
 694.51;   16.955; -143.012;    0.000;159.96712
 695.09;  -53.045;  -98.012;    0.000;44.96722
 695.66;  -29.045;  -71.012;    0.000;41.96733
 696.24;  -26.044; -143.012;    0.000;116.96743
 696.82;  -36.044;  -27.012;    0.000;-9.03247
 697.39;   18.956;  -79.012;    0.000;97.96764
 697.97;  -32.044;  -82.012;    0.000;49.96774
 698.55;   -8.044; -149.012;    0.000;140.96785
 699.13;  -16.044;  -73.012;    0.000;56.96795
 699.70;  -17.044; -105.012;    0.000;87.96806
 700.28;  -22.043;  -71.012;    0.000;48.96816
 700.86;   12.957;  -37.012;    0.000;49.96827
 701.43;  -57.043;  -50.012;    0.000;-7.03163
 702.01;  -15.043;  -86.011;    0.000;70.96848
 702.59;  -14.043;  -48.011;    0.000;33.96858
 703.16;    3.957; -103.011;    0.000;106.96869
 703.74;   26.957;  -12.011;    0.000;38.96879
 704.32;    1.958;   74.989;    0.000;-73.03110
 704.89;  -11.042;  -58.011;    0.000;46.96900
 705.47;   13.958;  -52.011;    0.000;65.96911
 706.05;   -5.042;  -53.011;    0.000;47.96921
 706.62;   -6.042;  -22.011;    0.000;15.96931
 707.20;  -44.042;  -72.011;    0.000;27.96942
 707.78;   16.958;  -57.011;    0.000;73.96952
 708.35;    3.959; -105.011;    0.000;108.96963
 708.93;  -62.041;   23.989;    0.000;-86.03027
 709.51;  -18.041;  -78.011;    0.000;59.96984
 710.08;  -27.041; -112.011;    0.000;84.96994
 710.66;   26.959;   -0.011;    0.000;26.97005
 711.23;   12.959;  -34.011;    0.000;46.97015
 711.81;  -10.041; -127.011;    0.000;116.97026
 712.39;   37.960;   -9.011;    0.000;46.97036
 712.96;  -25.040;  -71.011;    0.000;45.97047
 713.54;  -40.040;  -88.011;    0.000;47.97057
 714.11;  -11.040;  -82.011;    0.000;70.97068
 714.69;   13.960;  -57.011;    0.000;70.97078
 715.27;   13.960;  -36.011;    0.000;49.97089
 715.84;  -50.040;  -35.011;    0.000;-15.02901
 716.42;  -45.039;  -61.011;    0.000;15.97110
 716.99;  -23.039;  -47.010;    0.000;23.97120
 717.57;   23.961;  259.990;    0.000;-236.02870
 718.15;  -32.039;  -22.010;    0.000;-10.02859
 718.72;  -32.039;    2.990;    0.000;-35.02849
 719.30;  -10.039;  -90.010;    0.000;79.97162
 719.87;   14.961; -131.010;    0.000;145.97172
 720.45;  -25.038; -100.010;    0.000;74.97183
 721.02;    2.962;  -64.010;    0.000;66.97193
 721.60;  -17.038; -114.010;    0.000;96.97204
 722.17;  -54.038;  -62.010;    0.000; 7.97214
 722.75;  -16.038;  -69.010;    0.000;52.97225
 723.33;  -20.038;  -99.010;    0.000;78.97235
 723.90;  -22.038;  -10.010;    0.000;-12.02754
 724.48;   17.963;  -40.010;    0.000;57.97256
 725.05;  -44.037;  -79.010;    0.000;34.97267
 725.63;  -33.037;   25.990;    0.000;-59.02723
 726.20;  -25.037;  -15.010;    0.000;-10.02712
 726.78;  -70.037;  -98.010;    0.000;27.97298
 727.35;  -12.037;   21.990;    0.000;-34.02691
 727.93;  -37.037;  -91.010;    0.000;53.97319
 728.50;  -10.036;  112.990;    0.000;-123.02671
 729.08;  -20.036;  -13.010;    0.000;-7.02660
 729.65;   53.964;   70.990;    0.000;-17.02650
 730.23;   10.964;  -74.010;    0.000;84.97361
 730.80;  -14.036;  -35.010;    0.000;20.97371
 731.38;  -44.036;  -87.010;    0.000;42.97382
 731.95;  -13.036;   47.991;    0.000;-61.02608
 732.53;  -74.035;  -34.009;    0.000;-40.02597
 733.10;  -10.035;  -37.009;    0.000;26.97413
 733.68;  -56.035; -113.009;    0.000;56.97424
 734.25;  -15.035;  -81.009;    0.000;65.97434
 734.82;  -16.035;  -25.009;    0.000; 8.97445
 735.40;  -22.035;  -87.009;    0.000;64.97455
 735.97;  -22.035;   -6.009;    0.000;-16.02534
 736.55;  -47.034;  -22.009;    0.000;-25.02524
 737.12;   -1.034;  -32.009;    0.000;30.97487
 737.70;  -23.034; -100.009;    0.000;76.97497
 738.27;  -52.034;  -51.009;    0.000;-1.02493
 738.85;  -60.034; -101.009;    0.000;40.97518
 739.42;  -73.034;  -92.009;    0.000;18.97528
 739.99;   13.966;   17.991;    0.000;-4.02461
 740.57;  -75.033;  -21.009;    0.000;-54.02451
 741.14;   -7.033;   -7.009;    0.000;-0.02440
 741.72;  -59.033;  -60.009;    0.000; 0.97570
 742.29;  -56.033;  -94.009;    0.000;37.97581
 742.87;  -28.033;  -80.009;    0.000;51.97591
 743.44;  -53.033;  -58.009;    0.000; 4.97602
 744.01;   14.967;  -75.009;    0.000;89.97612
 744.59;  -23.032;  -68.009;    0.000;44.97623
 745.16;    4.968;  -40.009;    0.000;44.97633
 745.73;  -29.032; -106.009;    0.000;76.97644
 746.31;  -50.032;  -58.009;    0.000; 7.97654
 746.88;   21.968; -137.008;    0.000;158.97665
 747.46;   14.968;    2.992;    0.000;11.97675
 748.03;  -41.032;  -94.008;    0.000;52.97686
 748.60;  -42.031;  -38.008;    0.000;-4.02304
 749.18;  -32.031;  -71.008;    0.000;38.97706
 749.75;  -24.031;   25.992;    0.000;-50.02283
 750.32;   -2.031; -104.008;    0.000;101.97727
 750.90;  -12.031;  -62.008;    0.000;49.97738
 751.47;   29.969;   28.992;    0.000; 0.97748
 752.04;  -13.031;  -71.008;    0.000;57.97759
 752.62;  -57.030;  -81.008;    0.000;23.97769
 753.19;  -12.030;  -13.008;    0.000; 0.97780
 753.76;   22.970;  -97.008;    0.000;119.97790
 754.34;  -22.030;   -1.008;    0.000;-21.02199
 754.91;  -28.030;  -67.008;    0.000;38.97811
 755.48;   11.970;  -26.008;    0.000;37.97822
 756.06;  -29.030;   35.992;    0.000;-65.02168
 756.63;  -70.029;    9.992;    0.000;-80.02157
 757.20;  -20.029; -110.008;    0.000;89.97853
 757.78;   30.971; -109.008;    0.000;139.97864
 758.35;   16.971;  -21.008;    0.000;37.97874
 758.92;  -30.029;  -49.008;    0.000;18.97885
 759.50;    1.971; -123.008;    0.000;124.97895
 760.07;   -7.029;  -28.008;    0.000;20.97905
 760.64;  -48.028; -114.008;    0.000;65.97916
 761.21;  -23.028;  -26.008;    0.000; 2.97926
 761.79;  -38.028; -150.008;    0.000;111.97937
 762.36;  -30.028;    4.993;    0.000;-35.02053
 762.93;  -19.028;  -64.007;    0.000;44.97958
 763.50;  -31.028;  -56.007;    0.000;24.97968
 764.08;   22.972;  -75.007;    0.000;97.97979
 764.65;  -28.027;  -52.007;    0.000;23.97989
 765.22;  -38.027;  -49.007;    0.000;10.98000
 765.79;  -21.027;  -47.007;    0.000;25.98010
 766.37;  -39.027;  -10.007;    0.000;-29.01979
 766.94;  -56.027;  -49.007;    0.000;-7.01969
 767.51;   -7.027;  -86.007;    0.000;78.98042
 768.08;  -54.027;  -18.007;    0.000;-36.01948
 768.66;   -8.026;   -5.007;    0.000;-3.01937
 769.23;   -5.026;  -48.007;    0.000;42.98073
 769.80;   16.974;  -98.007;    0.000;114.98083
 770.37;   20.974;  -98.007;    0.000;118.98094
 770.94;   25.974;  -57.007;    0.000;82.98104
 771.52;    2.974;  -80.007;    0.000;82.98115
 772.09;   39.974;  -34.007;    0.000;73.98125
 772.66;  -47.025;   -4.007;    0.000;-43.01864
 773.23;  -33.025;   20.993;    0.000;-54.01854
 773.80;  -38.025;  -48.007;    0.000; 9.98157
 774.38;  -18.025;  -92.007;    0.000;73.98167
 774.95;  -49.025;    1.993;    0.000;-51.01822
 775.52;  -71.025;    7.993;    0.000;-79.01812
 776.09;  -14.025;  -93.007;    0.000;78.98199
 776.66;  -44.024;  -88.007;    0.000;43.98209
 777.24;  -52.024;  -43.006;    0.000;-9.01780
 777.81;    5.976;   36.994;    0.000;-31.01770
 778.38;  -27.024;  -57.006;    0.000;29.98241
 778.95;  -32.024;  -60.006;    0.000;27.98251
 779.52;  -37.024;  -45.006;    0.000; 7.98262
 780.09;   18.976;  102.994;    0.000;-84.01728
 780.66;  -22.023;  -35.006;    0.000;12.98282
 781.24;  -15.023;   15.994;    0.000;-31.01707
 781.81;  -13.023;  -81.006;    0.000;67.98303
 782.38;    1.977;  -82.006;    0.000;83.98314
 782.95;   -4.023; -106.006;    0.000;101.98324
 783.52;  -40.023;  -51.006;    0.000;10.98335
 784.09;  -17.023;  -73.006;    0.000;55.98345
 784.66;    3.978;  -42.006;    0.000;45.98356
 785.23;  -66.022; -108.006;    0.000;41.98366
 785.80;    4.978;  -93.006;    0.000;97.98377
 786.38;   54.978;   10.994;    0.000;43.98387
 786.95;    9.978;  -46.006;    0.000;55.98398
 787.52;  -15.022;  -24.006;    0.000; 8.98408
 788.09;  -14.022;  -78.006;    0.000;63.98419
 788.66;  -15.021; -134.006;    0.000;118.98429
 789.23;  -26.021;   47.994;    0.000;-74.01560
 789.80;  -32.021;  -64.006;    0.000;31.98450
 790.37;  -51.021;  -54.006;    0.000; 2.98461
 790.94;   23.979;   45.994;    0.000;-22.01529
 791.51;   -7.021; -123.006;    0.000;115.98481
 792.08;  -12.021; -103.005;    0.000;90.98492
 792.65;  -53.020;  -40.005;    0.000;-13.01498
 793.22;   26.980;   31.995;    0.000;-5.01487
 793.80;  -33.020;  -37.005;    0.000; 3.98523
 794.37;  -27.020;  -41.005;    0.000;13.98534
 794.94;   -3.020;   42.995;    0.000;-46.01456
 795.51;   -4.020;  -49.005;    0.000;44.98555
 796.08;   17.980;  -38.005;    0.000;55.98565
 796.65;  -28.019;  -72.005;    0.000;43.98576
 797.22;  -43.019;  -86.005;    0.000;42.98586
 797.79;  -29.019;   73.995;    0.000;-103.01403
 798.36;   -9.019;  -76.005;    0.000;66.98607
 798.93;  -30.019;  -92.005;    0.000;61.98618
 799.50;   12.981;  -48.005;    0.000;60.98628
 800.07;  -11.019;  -76.005;    0.000;64.98639
 800.64;  -32.018;  -91.005;    0.000;58.98649
 801.21;    5.982;  -67.005;    0.000;72.98659
 801.78;   33.982;  -58.005;    0.000;91.98670
 802.35;   -1.018;  -61.005;    0.000;59.98680
 802.92;  -11.018;  -74.005;    0.000;62.98691
 803.49;  -65.018;  -41.005;    0.000;-24.01299
 804.06;  -48.018;  -93.005;    0.000;44.98712
 804.63;   11.983; -110.005;    0.000;121.98722
 805.20;   13.983;  -20.005;    0.000;33.98733
 805.77;   -9.017;  -74.005;    0.000;64.98743
 806.34;   25.983;  -54.005;    0.000;79.98754
 806.91;  -53.017;  -34.004;    0.000;-19.01236
 807.47;   14.983; -119.004;    0.000;133.98775
 808.04;  -18.017;  -73.004;    0.000;54.98785
 808.61;  -62.016;  -39.004;    0.000;-23.01204
 809.18;  -20.016;    7.996;    0.000;-28.01194
 809.75;  -28.016;  -67.004;    0.000;38.98817
 810.32;  -12.016;  -87.004;    0.000;74.98827
 810.89;   17.984;  -66.004;    0.000;83.98838
 811.46;   -6.016;  -37.004;    0.000;30.98848
 812.03;    2.984; -132.004;    0.000;134.98858
 812.60;  -77.015; -119.004;    0.000;41.98869
 813.17;  -29.015;  -13.004;    0.000;-16.01121
 813.74;   25.985;   43.996;    0.000;-18.01110
 814.31;  -58.015;  -32.004;    0.000;-26.01100
 814.87;  -26.015;    0.996;    0.000;-27.01089
 815.44;   -2.015;  -65.004;    0.000;62.98921
 816.01;    7.985;   43.996;    0.000;-36.01068
 816.58;   -6.014;  -88.004;    0.000;81.98942
 817.15;  -24.014;   52.996;    0.000;-77.01047
 817.72;   -0.014;  -61.004;    0.000;60.98963
 818.29;   -6.014;  -34.004;    0.000;27.98974
 818.86;  -49.014;   25.996;    0.000;-75.01016
 819.42;  -32.014;  -45.004;    0.000;12.98995
 819.99;   24.986;  -39.004;    0.000;63.99005
 820.56;   16.987;  -80.004;    0.000;96.99016
 821.13;  -12.013;  -31.004;    0.000;18.99026
 821.70;  -58.013; -110.004;    0.000;51.99037
 822.27;   10.987;  -10.003;    0.000;20.99047
 822.84;  -33.013;  -45.003;    0.000;11.99057
 823.40;  -49.013;  -96.003;    0.000;46.99068
 823.97;  -17.013;    4.997;    0.000;-22.00922
 824.54;  -70.012;  -95.003;    0.000;24.99089
 825.11;  -48.012;  -94.003;    0.000;45.99099
 825.68;   11.988;   91.997;    0.000;-80.00890
 826.24;  -52.012;  -83.003;    0.000;30.99120
 826.81;    7.988;  -71.003;    0.000;78.99131
 827.38;   -4.012;  -87.003;    0.000;82.99141
 827.95;  -55.012;  -75.003;    0.000;19.99152
 828.52;  -33.011;  -79.003;    0.000;45.99162
 829.08;  -23.011;  -31.003;    0.000; 7.99173
 829.65;  -37.011;  -51.003;    0.000;13.99183
 830.22;  -11.011;  -55.003;    0.000;43.99194
 830.79;  -63.011;  -57.003;    0.000;-6.00796
 831.36;  -74.011;  -25.003;    0.000;-49.00785
 831.92;   20.989;   34.997;    0.000;-14.00775
 832.49;   53.990; -131.003;    0.000;184.99235
 833.06;    6.990;  -33.003;    0.000;39.99246
 833.63;  -47.010;  -54.003;    0.000; 6.99256
 834.19;   -6.010;  -60.003;    0.000;53.99267
 834.76;  -41.010;  -32.003;    0.000;-9.00723
 835.33;  -50.010;  -71.003;    0.000;20.99288
 835.90;   39.990; -124.003;    0.000;163.99298
 836.46;  -11.009;  -58.003;    0.000;46.99309
 837.03;  -56.009;  -54.002;    0.000;-2.00681
 837.60;    9.991;  -21.002;    0.000;30.99330
 838.17;  -46.009;   32.998;    0.000;-79.00660
 838.73;  -25.009;  -33.002;    0.000; 7.99351
 839.30;  -23.009;   12.998;    0.000;-36.00639
 839.87;  -59.009;   -0.002;    0.000;-59.00628
 840.43;  -16.008;  -16.002;    0.000;-0.00618
 841.00;  -14.008;    2.998;    0.000;-17.00607
 841.57;  -28.008;  -32.002;    0.000; 3.99403
 842.14;  -45.008;  -81.002;    0.000;35.99414
 842.70;   34.992;   11.998;    0.000;22.99424
 843.27;    4.992;    8.998;    0.000;-4.00566
 843.84;  -40.008; -102.002;    0.000;61.99445
 844.40;   20.993;  -75.002;    0.000;95.99455
 844.97;  -62.007;  -46.002;    0.000;-16.00534
 845.54;  -28.007;  -85.002;    0.000;56.99476
 846.10;  -47.007;  -35.002;    0.000;-12.00513
 846.67;  -31.007;  -94.002;    0.000;62.99497
 847.24;  -91.007; -113.002;    0.000;21.99508
 847.80;    9.993;  -66.002;    0.000;75.99518
 848.37;  -77.006;   -2.002;    0.000;-75.00471
 848.94;  -29.006;   38.998;    0.000;-68.00461
 849.50;   22.994;   46.998;    0.000;-24.00450
 850.07;  -13.006; -122.002;    0.000;108.99560
 850.63;  -26.006;   -7.002;    0.000;-19.00429
 851.20;  -22.006; -184.002;    0.000;161.99581
 851.77;    9.994; -114.001;    0.000;123.99592
 852.33;    9.995;   17.999;    0.000;-8.00398
 852.90;  -10.005;  -65.001;    0.000;54.99613
 853.47;    9.995;  -23.001;    0.000;32.99623
 854.03;  -52.005;  -70.001;    0.000;17.99633
 854.60;  -30.005;    5.999;    0.000;-36.00356
 855.16;  -48.005;   34.999;    0.000;-83.00346
 855.73;  -40.005;   23.999;    0.000;-64.00335
 856.30;  -22.004;   12.999;    0.000;-35.00325
 856.86;   26.996;  -52.001;    0.000;78.99686
 857.43;  -74.004;   38.999;    0.000;-113.00304
 857.99;  -59.004;  -68.001;    0.000; 8.99707
 858.56;  -35.004; -104.001;    0.000;68.99717
 859.12;  -10.004;  -87.001;    0.000;76.99728
 859.69;  -48.004;  -60.001;    0.000;11.99738
 860.26;  -46.003; -104.001;    0.000;57.99749
 860.82;  -21.003;  -54.001;    0.000;32.99759
 861.39;   -5.003;   18.999;    0.000;-24.00230
 861.95;   23.997;  -37.001;    0.000;60.99780
 862.52;  -59.003;    4.999;    0.000;-64.00209
 863.08;   -8.003;  -78.001;    0.000;69.99801
 863.65;  -36.003;  -32.001;    0.000;-4.00189
 864.21;  -16.002;  -78.001;    0.000;61.99822
 864.78;    4.998;    7.999;    0.000;-3.00168
 865.34;  -31.002;  176.999;    0.000;-208.00157
 865.91;  -19.002;  -26.001;    0.000; 6.99853
 866.47;  -49.002; -106.000;    0.000;56.99864
 867.04;  -39.002;  -30.000;    0.000;-9.00126
 867.61;   -9.002;  -90.000;    0.000;80.99885
 868.17;  -19.001;  -33.000;    0.000;13.99895
 868.74;  -31.001;  -71.000;    0.000;39.99906
 869.30;  -74.001;  -84.000;    0.000; 9.99916
 869.86;  -45.001;  -31.000;    0.000;-14.00073
 870.43;   -6.001; -162.000;    0.000;155.99937
 870.99;  -53.001; -146.000;    0.000;92.99948
 871.56;  -39.001;   -7.000;    0.000;-32.00042
 872.12;   12.000; -126.000;    0.000;137.99969
 872.69;  -10.000;  -87.000;    0.000;76.99979
 873.25;  -16.000;  -61.000;    0.000;44.99990
 873.82;   62.000;  -70.000;    0.000;132.00000
 874.38;  -33.000;    5.000;    0.000;-38.00000
 874.95;   39.000;  -30.000;    0.000;69.00000
 875.51;  -62.000;  -47.000;    0.000;-15.00000
 876.08;   17.000; -104.000;    0.000;121.00000
 876.64;  -44.000;  -93.000;    0.000;49.00000
 877.20;  -40.000;  -73.000;    0.000;33.00000
 877.77;   20.000;  -61.000;    0.000;81.00000
 878.33;  -60.000; -115.000;    0.000;55.00000
 878.90;    7.000;    0.000;    0.000; 7.00000
 879.46;  -23.000;  -96.000;    0.000;73.00000
 880.03;  -37.000;   -6.000;    0.000;-31.00000
 880.59;   -1.000;  -52.000;    0.000;51.00000
 881.15;  -47.000;   -3.000;    0.000;-44.00000
 881.72;  -12.000;  -85.000;    0.000;73.00000
 882.28;  -33.000;  -38.000;    0.000; 5.00000
 882.85;    2.000;  -80.000;    0.000;82.00000
 883.41;    0.000;   -8.000;    0.000; 8.00000
 883.97;  -37.000;  259.000;    0.000;-296.00000
 884.54;  -45.000;  -62.000;    0.000;17.00000
 885.10;  -28.000;  -98.000;    0.000;70.00000
 885.66;    8.000;   30.000;    0.000;-22.00000
 886.23;  -33.000;  -75.000;    0.000;42.00000
 886.79;   -4.000;  -44.000;    0.000;40.00000
 887.36;    6.000;  -62.000;    0.000;68.00000
 887.92;  -23.000; -115.000;    0.000;92.00000
 888.48;  -49.000; -126.000;    0.000;77.00000
 889.05;  -10.000; -109.000;    0.000;99.00000
 889.61;  -33.000;  -71.000;    0.000;38.00000
 890.17;  -12.000; -119.000;    0.000;107.00000
 890.74;  -35.000;  -51.000;    0.000;16.00000
 891.30;  -10.000;  -49.000;    0.000;39.00000
 891.86;  -12.000; -100.000;    0.000;88.00000
 892.43;  -42.000; -113.000;    0.000;71.00000
 892.99;  -39.000;  -47.000;    0.000; 8.00000
 893.55;  -15.000; -133.000;    0.000;118.00000
 894.11;  -22.000;  -44.000;    0.000;22.00000
 894.68;    5.000;    8.000;    0.000;-3.00000
 895.24;  -34.000;   90.000;    0.000;-124.00000
 895.80;  -15.000;  -69.000;    0.000;54.00000
 896.37;  -19.000;  -60.000;    0.000;41.00000
 896.93;  -28.000;   24.000;    0.000;-52.00000
 897.49;  -39.000;  -65.000;    0.000;26.00000
 898.05;   14.000;  -15.000;    0.000;29.00000
 898.62;  -27.000;   34.000;    0.000;-61.00000
 899.18;    5.000;  -72.000;    0.000;77.00000
 899.74;  -33.000;  105.000;    0.000;-138.00000
 900.31;  -25.000;  -72.000;    0.000;47.00000
 900.87;  -42.000; -117.000;    0.000;75.00000
 901.43;  -31.000; -125.000;    0.000;94.00000
 901.99;    7.000;  -29.000;    0.000;36.00000
 902.56;    6.000;   -7.000;    0.000;13.00000
 903.12;  -18.000;  173.000;    0.000;-191.00000
 903.68;   -8.000;  -10.000;    0.000; 2.00000
 904.24;  -47.000;  -54.000;    0.000; 7.00000
 904.80;  -10.000;  -42.000;    0.000;32.00000
 905.37;  -10.000; -103.000;    0.000;93.00000
 905.93;   24.000;  -27.000;    0.000;51.00000
 906.49;  -43.000;    0.000;    0.000;-43.00000
 907.05;  -35.000;  -71.000;    0.000;36.00000
 907.61;  -82.000;  -66.000;    0.000;-16.00000
 908.18;  -14.000;   49.000;    0.000;-63.00000
 908.74;  -63.000;  -79.000;    0.000;16.00000
 909.30;  -45.000;  -76.000;    0.000;31.00000
 909.86;  -15.000;  -29.000;    0.000;14.00000
 910.42;    2.000;  -41.000;    0.000;43.00000
 910.99;  -60.000;  -25.000;    0.000;-35.00000
 911.55;  -19.000;  -97.000;    0.000;78.00000
 912.11;  -24.000;  -37.000;    0.000;13.00000
 912.67;  -21.000;  -20.000;    0.000;-1.00000
 913.23;   -2.000;  -78.000;    0.000;76.00000
 913.79;  -21.000;  -26.000;    0.000; 5.00000
 914.36;  -11.000;  -94.000;    0.000;83.00000
 914.92;  -67.000;   10.000;    0.000;-77.00000
 915.48;  -62.000;  -55.000;    0.000;-7.00000
 916.04;  -54.000;   85.000;    0.000;-139.00000
 916.60;   -6.000;  -64.000;    0.000;58.00000
 917.16;   13.000; -173.000;    0.000;186.00000
 917.72;  -33.000;  -66.000;    0.000;33.00000
 918.28;  -40.000;  -99.000;    0.000;59.00000
 918.85;  -42.000;  -41.000;    0.000;-1.00000
 919.41;    6.000;  -44.000;    0.000;50.00000
 919.97;  -21.000; -160.000;    0.000;139.00000
 920.53;    2.000;  -17.000;    0.000;19.00000
 921.09;  -15.000;   -1.000;    0.000;-14.00000
 921.65;   20.000;  -52.000;    0.000;72.00000
 922.21;   22.000; -103.000;    0.000;125.00000
 922.77;   26.000;  -82.000;    0.000;108.00000
 923.33;   18.000;  -38.000;    0.000;56.00000
 923.89;   -3.000;  -72.000;    0.000;69.00000
 924.45;   -1.000;  -65.000;    0.000;64.00000
 925.01;  -18.000;  -45.000;    0.000;27.00000
 925.58;  -50.000;  -94.000;    0.000;44.00000
 926.14;  -10.000;  -79.000;    0.000;69.00000
 926.70;   23.000;  -93.000;    0.000;116.00000
 927.26;   38.000;   18.000;    0.000;20.00000
 927.82;  -20.000;  -50.000;    0.000;30.00000
 928.38;  -18.000;  -83.000;    0.000;65.00000
 928.94;    6.000;  -89.000;    0.000;95.00000
 929.50;   30.000;  -18.000;    0.000;48.00000
 930.06;    8.000; -128.000;    0.000;136.00000
 930.62;   15.000; -109.000;    0.000;124.00000
 931.18;  -38.000;  -17.000;    0.000;-21.00000
 931.74;   12.000;  -92.000;    0.000;104.00000
 932.30;  -14.000;  -18.000;    0.000; 4.00000
 932.86;  -43.000;  -88.000;    0.000;45.00000
 933.42;    2.000;    2.000;    0.000; 0.00000
 933.98;  -30.000;    6.000;    0.000;-36.00000
 934.54;   21.000;  -35.000;    0.000;56.00000
 935.10;  -38.000;  -75.000;    0.000;37.00000
 935.66;  -25.000;  -85.000;    0.000;60.00000
 936.22;  -30.000;  -47.000;    0.000;17.00000
 936.78;  -44.000; -124.000;    0.000;80.00000
 937.34;   -3.000;  -21.000;    0.000;18.00000
 937.90;  -10.000;  -85.000;    0.000;75.00000
 938.46;  -64.000; -102.000;    0.000;38.00000
 939.02;    8.000;  -93.000;    0.000;101.00000
 939.58;  -59.000; -134.000;    0.000;75.00000
 940.14;   -1.000;  -80.000;    0.000;79.00000
 940.70;    0.000;   98.000;    0.000;-98.00000
 941.25;  -95.000;  -36.000;    0.000;-59.00000
 941.81;  -53.000; -118.000;    0.000;65.00000
 942.37;    7.000;   18.000;    0.000;-11.00000
 942.93;  -16.000; -100.000;    0.000;84.00000
 943.49;   -7.000;  -44.000;    0.000;37.00000
 944.05;  -71.000;  -50.000;    0.000;-21.00000
 944.61;  -12.000;  -26.000;    0.000;14.00000
 945.17;  -34.000;  -33.000;    0.000;-1.00000
 945.73;  -69.000;  -81.000;    0.000;12.00000
 946.29;  -71.000;  -34.000;    0.000;-37.00000
 946.85;  -23.000; -100.000;    0.000;77.00000
 947.40;  -19.000; -119.000;    0.000;100.00000
 947.96;  -56.000;  -64.000;    0.000; 8.00000
 948.52;    2.000;  -72.000;    0.000;74.00000
 949.08;   19.000;  -38.000;    0.000;57.00000
 949.64;    3.000;   24.000;    0.000;-21.00000
 950.20;  -11.000;  -83.000;    0.000;72.00000
 950.76;  -43.000;  -72.000;    0.000;29.00000
 951.32;  -48.000;  -53.000;    0.000; 5.00000
 951.87;  -66.000;  -19.000;    0.000;-47.00000
 952.43;  -30.000;   11.000;    0.000;-41.00000
 952.99;  -35.000;   -7.000;    0.000;-28.00000
 953.55;  -83.000;  -85.000;    0.000; 2.00000
 954.11;  -43.000; -112.000;    0.000;69.00000
 954.67;  -34.000;  -63.000;    0.000;29.00000
 955.22;    0.000;  -70.000;    0.000;70.00000
 955.78;  -25.000;   79.000;    0.000;-104.00000
 956.34;    3.000;  -22.000;    0.000;25.00000
 956.90;  -19.000;  -85.000;    0.000;66.00000
 957.46;  -26.000;  -55.000;    0.000;29.00000
 958.01;  -41.000;    4.000;    0.000;-45.00000
 958.57;  -16.000;  -10.000;    0.000;-6.00000
 959.13;  -10.000;  -48.000;    0.000;38.00000
 959.69;  -37.000;  -86.000;    0.000;49.00000
 960.25;  -20.000;  -41.000;    0.000;21.00000
 960.80;  -10.000;  -22.000;    0.000;12.00000
 961.36;  -57.000;  -36.000;    0.000;-21.00000
 961.92;  -22.000; -138.000;    0.000;116.00000
 962.48;  -38.000;  -84.000;    0.000;46.00000
 963.03;  -61.000;  -48.000;    0.000;-13.00000
 963.59;  -74.000;    6.000;    0.000;-80.00000
 964.15;  -26.000;  -28.000;    0.000; 2.00000
 964.71;  -10.000;  -42.000;    0.000;32.00000
 965.26;  -28.000;  -54.000;    0.000;26.00000
 965.82;  -38.000;  -19.000;    0.000;-19.00000
 966.38;   26.000;  -65.000;    0.000;91.00000
 966.94;  -18.000; -117.000;    0.000;99.00000
 967.49;  -32.000; -107.000;    0.000;75.00000
 968.05;  -33.000;  -94.000;    0.000;61.00000
 968.61;  -28.000;   43.000;    0.000;-71.00000
 969.17;  -12.000;  -84.000;    0.000;72.00000
 969.72;   16.000; -122.000;    0.000;138.00000
 970.28;   -3.000;   11.000;    0.000;-14.00000
 970.84;  -16.000;  -71.000;    0.000;55.00000
 971.39;  -83.000;   14.000;    0.000;-97.00000
 971.95;   -7.000; -104.000;    0.000;97.00000
 972.51;  -27.000; -112.000;    0.000;85.00000
 973.06;  -27.000;  -20.000;    0.000;-7.00000
 973.62;  -71.000;  -33.000;    0.000;-38.00000
 974.18;  -25.000;  -51.000;    0.000;26.00000
 974.73;  -43.000; -117.000;    0.000;74.00000
 975.29;  -51.000;   46.000;    0.000;-97.00000
 975.85;   -7.000;   33.000;    0.000;-40.00000
 976.40;    5.000;   26.000;    0.000;-21.00000
 976.96;  -36.000;  -93.000;    0.000;57.00000
 977.52;  -21.000;   22.000;    0.000;-43.00000
 978.07;  -71.000;  -92.000;    0.000;21.00000
 978.63;   13.000;  -61.000;    0.000;74.00000
 979.19;  -13.000;  -96.000;    0.000;83.00000
 979.74;  -65.000;   16.000;    0.000;-81.00000
 980.30;    0.000; -142.000;    0.000;142.00000
 980.85;    7.000;    0.000;    0.000; 7.00000
 981.41;  -35.000;  -86.000;    0.000;51.00000
 981.97;   34.000; -102.000;    0.000;136.00000
 982.52;  -80.000; -113.000;    0.000;33.00000
 983.08;  -47.000; -109.000;    0.000;62.00000
 983.63;  -68.000;  -71.000;    0.000; 3.00000
 984.19;    1.000;  -33.000;    0.000;34.00000
 984.75;  -28.000; -102.000;    0.000;74.00000
 985.30;  -19.000; -108.000;    0.000;89.00000
 985.86;  -35.000;  -66.000;    0.000;31.00000
 986.41;  -25.000;  -77.000;    0.000;52.00000
 986.97;  -15.000;  -90.000;    0.000;75.00000
 987.52;   -7.000; -103.000;    0.000;96.00000
 988.08;  -45.000; -121.000;    0.000;76.00000
 988.64;  -63.000;  -87.000;    0.000;24.00000
 989.19;  -12.000; -112.000;    0.000;100.00000
 989.75;   -1.000;    7.000;    0.000;-8.00000
 990.30;  -35.000; -125.000;    0.000;90.00000
 990.86;    0.000;  -60.000;    0.000;60.00000
 991.41;  -23.000;  -89.000;    0.000;66.00000
 991.97;  -69.000;  -22.000;    0.000;-47.00000
 992.52;  -28.000; -114.000;    0.000;86.00000
 993.08;   41.000; -114.000;    0.000;155.00000
 993.63;  -25.000;  -53.000;    0.000;28.00000
 994.19;  -25.000;  -18.000;    0.000;-7.00000
 994.74;  -30.000; -126.000;    0.000;96.00000
 995.30;  -35.000; -125.000;    0.000;90.00000
 995.85;  -57.000;  -86.000;    0.000;29.00000
 996.41;  -64.000;  -72.000;    0.000; 8.00000
 996.96;  -64.000;   -2.000;    0.000;-62.00000
 997.52;  -80.000;   45.000;    0.000;-125.00000
 998.07;    9.000;   -6.000;    0.000;15.00000
 998.63;  -50.000;  -97.000;    0.000;47.00000
 999.18;  -23.000;  103.000;    0.000;-126.00000
 999.74;  -27.000;  -43.000;    0.000;16.00000
1000.29;   33.000;  -49.000;    0.000;82.00000
1000.85;    1.000;  -39.000;    0.000;40.00000
1001.40;   -4.000;  -30.000;    0.000;26.00000
1001.96;  -23.000;  -96.000;    0.000;73.00000
1002.51;  -71.000; -103.000;    0.000;32.00000
1003.06;  -19.000;  -94.000;    0.000;75.00000
1003.62;  -49.000;   -1.000;    0.000;-48.00000
1004.17;   35.000; -111.000;    0.000;146.00000
1004.73;   17.000;  -93.000;    0.000;110.00000
1005.28;   -7.000;   77.000;    0.000;-84.00000
1005.83;  -27.000;  -80.000;    0.000;53.00000
1006.39;  -22.000; -146.000;    0.000;124.00000
1006.94;   -6.000; -103.000;    0.000;97.00000
1007.50;  -33.000;   28.000;    0.000;-61.00000
1008.05;    9.000;  -47.000;    0.000;56.00000
1008.60;  -45.000;  -88.000;    0.000;43.00000
1009.16;  -60.000;  -50.000;    0.000;-10.00000
1009.71;  -18.000;   21.000;    0.000;-39.00000
1010.27;  -48.000;  -89.000;    0.000;41.00000
1010.82;  -53.000;  -97.000;    0.000;44.00000
1011.37;  -24.000;  -11.000;    0.000;-13.00000
1011.93;    5.000;   13.000;    0.000;-8.00000
1012.48;  -18.000;  -61.000;    0.000;43.00000
1013.03;   37.000;  -74.000;    0.000;111.00000
1013.59;  -12.000;  -16.000;    0.000; 4.00000
1014.14;  -35.000;  -69.000;    0.000;34.00000
1014.69;  -39.000; -129.000;    0.000;90.00000
1015.25;  -32.000;   66.000;    0.000;-98.00000
1015.80;   31.000;  -14.000;    0.000;45.00000
1016.35;  -49.000; -124.000;    0.000;75.00000
1016.91;  -31.000; -140.000;    0.000;109.00000
1017.46;  -33.000; -122.000;    0.000;89.00000
1018.01;   -1.000;  -42.000;    0.000;41.00000
1018.57;   -2.000; -115.000;    0.000;113.00000
1019.12;  -34.000; -101.000;    0.000;67.00000
1019.67;    3.000;   10.000;    0.000;-7.00000
1020.23;    6.000;  -22.000;    0.000;28.00000
1020.78;   -4.000; -187.000;    0.000;183.00000
1021.33;   10.000;  -89.000;    0.000;99.00000
1021.88;   14.000;    4.000;    0.000;10.00000
1022.44;  -18.000;   10.000;    0.000;-28.00000
1022.99;   10.000;   -5.000;    0.000;15.00000
1023.54;  -21.000;  -85.000;    0.000;64.00000
1024.09;  -28.000;   38.000;    0.000;-66.00000
1024.65;   24.000;  -53.000;    0.000;77.00000
1025.20;   12.000; -105.000;    0.000;117.00000
1025.75;  -16.000;  -42.000;    0.000;26.00000
1026.30;   -6.000;  -44.000;    0.000;38.00000
1026.86;  -31.000; -104.000;    0.000;73.00000
1027.41;  -47.000;  -48.000;    0.000; 1.00000
1027.96;  -25.000;  -34.000;    0.000; 9.00000
1028.51;   39.000;   87.000;    0.000;-48.00000
1029.07;  -20.000;  -93.000;    0.000;73.00000
1029.62;  -59.000;  -70.000;    0.000;11.00000
1030.17;  -11.000;  -53.000;    0.000;42.00000
1030.72;    6.000;  -29.000;    0.000;35.00000
1031.27;  -36.000;  -72.000;    0.000;36.00000
1031.83;  -11.000;  -58.000;    0.000;47.00000
1032.38;  -43.000;   24.000;    0.000;-67.00000
1032.93;  -21.000;  -82.000;    0.000;61.00000
1033.48;  -40.000;  -48.000;    0.000; 8.00000
1034.03;  -19.000; -100.000;    0.000;81.00000
1034.58;   -5.000;  -24.000;    0.000;19.00000
1035.14;  -35.000; -128.000;    0.000;93.00000
1035.69;   -4.000; -126.000;    0.000;122.00000
1036.24;    3.000;  -66.000;    0.000;69.00000
1036.79; -105.000;  -77.000;    0.000;-28.00000
1037.34;  -34.000; -100.000;    0.000;66.00000
1037.89;  -11.000;  -99.000;    0.000;88.00000
1038.45;  -37.000; -113.000;    0.000;76.00000
1039.00;    0.000; -132.000;    0.000;132.00000
1039.55;  -40.000; -104.000;    0.000;64.00000
1040.10;  -28.000;  -57.000;    0.000;29.00000
1040.65;  -49.000;  -95.000;    0.000;46.00000
1041.20;  -48.000; -102.000;    0.000;54.00000
1041.75;  -53.000;  -74.000;    0.000;21.00000
1042.30;  -49.000;  -93.000;    0.000;44.00000
1042.85;  -29.000;  -56.000;    0.000;27.00000
1043.41;  -12.000;  -25.000;    0.000;13.00000
1043.96;   -7.000; -123.000;    0.000;116.00000
1044.51;    6.000;  -64.000;    0.000;70.00000
1045.06;  -50.000;   16.000;    0.000;-66.00000
1045.61;  -44.000; -109.000;    0.000;65.00000
1046.16;   41.000;    6.000;    0.000;35.00000
1046.71;   -7.000;  -61.000;    0.000;54.00000
1047.26;  -72.000;  -70.000;    0.000;-2.00000
1047.81;   20.000; -145.000;    0.000;165.00000
1048.36;  -19.000; -112.000;    0.000;93.00000
1048.91;   31.000;  834.000;    0.000;-803.00000
1049.46;  -13.000;   60.000;    0.000;-73.00000
1050.01;   -5.000;  -50.000;    0.000;45.00000
1050.56;  -11.000;  -80.000;    0.000;69.00000
1051.11;   -9.000;    5.000;    0.000;-14.00000
1051.66;    8.000;  -71.000;    0.000;79.00000
1052.21;  -34.000;  -57.000;    0.000;23.00000
1052.76;   10.000;  -13.000;    0.000;23.00000
1053.31;  -35.000;  -89.000;    0.000;54.00000
1053.86;   22.000;  -51.000;    0.000;73.00000
1054.41;  -23.000;  -71.000;    0.000;48.00000
1054.96;  -26.000;  -52.000;    0.000;26.00000
1055.51;  -38.000;  156.000;    0.000;-194.00000
1056.06;  -53.000; -122.000;    0.000;69.00000
1056.61;  -56.000;   17.000;    0.000;-73.00000
1057.16;  -49.000; -101.000;    0.000;52.00000
1057.71;  -68.000;  -79.000;    0.000;11.00000
1058.26;  -46.000; -128.000;    0.000;82.00000
1058.81;  -70.000;  -50.000;    0.000;-20.00000
1059.36;  -43.000;  -99.000;    0.000;56.00000
1059.91;  -36.000;  -12.000;    0.000;-24.00000
1060.46;  -47.000;   -9.000;    0.000;-38.00000
1061.01;  -66.000;  -39.000;    0.000;-27.00000
1061.56;  -18.000; -101.000;    0.000;83.00000
1062.11;  -53.000;  -77.000;    0.000;24.00000
1062.66;  -17.000;  -80.000;    0.000;63.00000
1063.21;  -55.000; -132.000;    0.000;77.00000
1063.76;  -66.000;  -75.000;    0.000; 9.00000
1064.31;  -50.000;  -42.000;    0.000;-8.00000
1064.86;  -52.000;  -86.000;    0.000;34.00000
1065.40;  -12.000;   29.000;    0.000;-41.00000
1065.95;  -47.000;  -38.000;    0.000;-9.00000
1066.50;  -34.000;  -91.000;    0.000;57.00000
1067.05;  -46.000;  -81.000;    0.000;35.00000
1067.60;  -47.000;  -70.000;    0.000;23.00000
1068.15;  -21.000;  -69.000;    0.000;48.00000
1068.70;  -61.000;  -92.000;    0.000;31.00000
1069.25;  -28.000;  -55.000;    0.000;27.00000
1069.79;  -46.000;  -90.000;    0.000;44.00000
1070.34;  -53.000; -115.000;    0.000;62.00000
1070.89;   -8.000; -102.000;    0.000;94.00000
1071.44;  -60.000;  -64.000;    0.000; 4.00000
1071.99;   23.000;  153.000;    0.000;-130.00000
1072.54;  -14.000; -101.000;    0.000;87.00000
1073.09;  -14.000;  -97.000;    0.000;83.00000
1073.63;  -29.000;  -27.000;    0.000;-2.00000
1074.18;   -9.000;  -73.000;    0.000;64.00000
1074.73;  -60.000;  -91.000;    0.000;31.00000
1075.28;  -66.000;   20.000;    0.000;-86.00000
1075.83;  -52.000;  -34.000;    0.000;-18.00000
1076.38;  -48.000;  -93.000;    0.000;45.00000
1076.92;  -12.000;  -76.000;    0.000;64.00000
1077.47;  -45.000;  -37.000;    0.000;-8.00000
1078.02;  -10.000;   34.000;    0.000;-44.00000
1078.57;  -73.000; -126.000;    0.000;53.00000
1079.11;   -9.000; -118.000;    0.000;109.00000
1079.66;  -27.000; -151.000;    0.000;124.00000
1080.21;  -32.000;  -38.000;    0.000; 6.00000
1080.76;    0.000;  -56.000;    0.000;56.00000
1081.31;   -4.000;  -95.000;    0.000;91.00000
1081.85;  -80.000;  -58.000;    0.000;-22.00000
1082.40;  -27.000;  -25.000;    0.000;-2.00000
1082.95;  -15.000;  -56.000;    0.000;41.00000
1083.50;  -21.000;  -72.000;    0.000;51.00000
1084.04;  -59.000;  -53.000;    0.000;-6.00000
1084.59;  -33.000;  -57.000;    0.000;24.00000
1085.14;  -49.000; -150.000;    0.000;101.00000
1085.69;  -19.000;  -64.000;    0.000;45.00000
1086.23;  -28.000;  -29.000;    0.000; 1.00000
1086.78;    3.000;    6.000;    0.000;-3.00000
1087.33;   -8.000;   -2.000;    0.000;-6.00000
1087.87;  -42.000;  -71.000;    0.000;29.00000
1088.42;  -55.000;   17.000;    0.000;-72.00000
1088.97;  -13.000; -110.000;    0.000;97.00000
1089.52;  -70.000;  -48.000;    0.000;-22.00000
1090.06;  -37.000;  -91.000;    0.000;54.00000
1090.61;  -18.000; -101.000;    0.000;83.00000
1091.16;   -7.000;  -51.000;    0.000;44.00000
1091.70;  -74.000;  -82.000;    0.000; 8.00000
1092.25;  -22.000;  -46.000;    0.000;24.00000
1092.80;  -10.000;  -45.000;    0.000;35.00000
1093.34;  -20.000;  -64.000;    0.000;44.00000
1093.89;  -19.000;  -67.000;    0.000;48.00000
1094.44;   -8.000;  -15.000;    0.000; 7.00000
1094.98;   36.000;   58.000;    0.000;-22.00000
1095.53;  -26.000;  -80.000;    0.000;54.00000
1096.07;   13.000;  -25.000;    0.000;38.00000
1096.62;   23.000; -103.000;    0.000;126.00000
1097.17;  -11.000;   -5.000;    0.000;-6.00000
1097.71;  -23.000;  -69.000;    0.000;46.00000
1098.26;   -6.000; -117.000;    0.000;111.00000
1098.81;   -7.000;  -42.000;    0.000;35.00000
1099.35;  -40.000; -117.000;    0.000;77.00000
1099.90;  -17.000;  -30.000;    0.000;13.00000
1100.44;  -29.000;  -82.000;    0.000;53.00000

