420-425_22mA_4.08V_1701237U1
Integration time [ms]:   2.000
Averaging Nr. [scans]: 1
Smoothing Nr. [pixels]: 0
Data measured with spectrometer [name]: 1701237U1
Wave   ;Sample   ;Dark     ;Reference;Scope Corrected for Dark
[nm]   ;[counts] ;[counts] ;[counts] ;[counts] 

 173.88;   -4.028;  -14.009;    0.000; 9.98098
 174.48;   19.982;  -57.006;    0.000;76.98762
 175.09;   22.993;    4.998;    0.000;17.99541
 175.69;  -44.018;    8.994;    0.000;-53.01203
 176.30;  -24.029;   65.991;    0.000;-90.01973
 176.90;  -20.010;  -12.003;    0.000;-8.00681
 177.51;   -2.006;  -12.002;    0.000; 9.99586
 178.11;   -5.021;   20.993;    0.000;-26.01403
 178.72;  -14.011;  -19.004;    0.000; 4.99221
 179.32;   -2.024;  -80.008;    0.000;77.98374
 179.93;  -16.023;  -64.007;    0.000;47.98450
 180.54;   44.994;   40.998;    0.000; 3.99559
 181.14;  -11.028;  -11.009;    0.000;-0.01929
 181.75;  -29.008;   44.997;    0.000;-74.00552
 182.35;   -5.006;  -54.002;    0.000;48.99599
 182.96;  -38.012;   76.996;    0.000;-115.00846
 183.56;  -30.030;   16.990;    0.000;-47.02062
 184.17;  -22.017;  148.995;    0.000;-171.01131
 184.77;  -81.006;  -17.002;    0.000;-64.00423
 185.38;  -13.019;    7.994;    0.000;-21.01265
 185.98;   14.980;   50.994;    0.000;-36.01327
 186.59;  -73.011;    8.996;    0.000;-82.00766
 187.19;  -11.016;   10.995;    0.000;-22.01060
 187.80;   -5.027;  -30.008;    0.000;24.98196
 188.40;   -7.040;   21.987;    0.000;-29.02726
 189.01;  -25.019;  -34.006;    0.000; 8.98677
 189.61;   30.987;  -27.004;    0.000;57.99145
 190.21;   15.973;  -46.009;    0.000;61.98183
 190.82;   -3.024;   -3.008;    0.000;-0.01612
 191.42;    3.970;  -46.010;    0.000;49.97942
 192.03;   20.968;  -61.010;    0.000;81.97831
 192.63;  -53.036;   -7.011;    0.000;-46.02441
 193.24;   59.991;   36.997;    0.000;22.99394
 193.84;  -12.043;  -37.014;    0.000;24.97069
 194.45;   19.964;  -17.012;    0.000;36.97528
 195.05;    3.976;  -76.008;    0.000;79.98379
 195.66;  -47.034;   -1.011;    0.000;-46.02281
 196.26;  -32.044;   10.986;    0.000;-43.03024
 196.87;   37.961;   -4.013;    0.000;41.97336
 197.47;   -6.032;   21.990;    0.000;-28.02165
 198.07;   21.957;  -50.014;    0.000;71.97060
 198.68;  -10.046;  -94.015;    0.000;83.96886
 199.28;  -30.027;    9.991;    0.000;-40.01822
 199.89;   14.943;  -19.018;    0.000;33.96129
 200.49;   20.956;   20.986;    0.000;-0.02962
 201.10;   38.966;   17.989;    0.000;20.97688
 201.70;  -27.047;   26.985;    0.000;-54.03185
 202.31;   12.979;  -70.007;    0.000;82.98606
 202.91;    6.979;   24.993;    0.000;-18.01425
 203.51;  -22.035;  -47.011;    0.000;24.97639
 204.12;  -27.005;  -31.002;    0.000; 3.99670
 204.72;  -16.012;   39.996;    0.000;-56.00846
 205.33;  -22.021;  -49.007;    0.000;26.98601
 205.93;   36.975;  -21.008;    0.000;57.98272
 206.53;  -37.028;  -39.009;    0.000; 1.98071
 207.14;   37.973; -109.009;    0.000;146.98143
 207.74;   39.974;   45.992;    0.000;-6.01764
 208.35;  -17.032;  -50.010;    0.000;32.97817
 208.95;  -14.027;   -0.009;    0.000;-14.01831
 209.55;  -17.027;  206.991;    0.000;-224.01862
 210.16;  -15.032;  -10.010;    0.000;-5.02178
 210.76;  -12.030;  -30.010;    0.000;17.97942
 211.37;  -47.029;  -79.009;    0.000;31.98031
 211.97;  -25.019;  -25.006;    0.000;-0.01278
 212.57;   10.958;  -30.014;    0.000;40.97123
 213.18;  -38.034;  -58.011;    0.000;19.97688
 213.78;   35.962; -103.012;    0.000;138.97403
 214.38;  -38.027;  -23.009;    0.000;-15.01808
 214.99;   44.966;   13.989;    0.000;30.97688
 215.59;  -85.040;  -36.013;    0.000;-49.02717
 216.20;   34.956;  -27.014;    0.000;61.97016
 216.80;  -24.041;  -75.013;    0.000;50.97180
 217.40;    2.968;  -15.010;    0.000;17.97817
 218.01;  -36.047;  -26.015;    0.000;-10.03171
 218.61;  -53.038;  -50.012;    0.000;-3.02552
 219.21;   50.973;    0.991;    0.000;49.98156
 219.82;  -56.029;  186.991;    0.000;-243.01942
 220.42;   18.970;  -65.010;    0.000;83.97973
 221.02;   -2.055;  -59.018;    0.000;56.96263
 221.63;   -1.060; -120.019;    0.000;118.95933
 222.23;   -9.040;  -73.013;    0.000;63.97278
 222.83;  -56.030;  -20.010;    0.000;-36.02040
 223.44;  -39.021;  -50.007;    0.000;10.98601
 224.04;    8.940;  -21.019;    0.000;29.95889
 224.64;  -43.045;  -94.014;    0.000;50.96940
 225.25;   36.971;  -24.009;    0.000;60.98005
 225.85;  -68.023;  -30.007;    0.000;-38.01581
 226.45;  -20.040;   -8.013;    0.000;-12.02730
 227.06;  -28.034;   77.989;    0.000;-106.02285
 227.66;  -18.028;   97.991;    0.000;-116.01906
 228.26;  -60.037;  -10.012;    0.000;-50.02499
 228.87;   27.963;  -14.012;    0.000;41.97457
 229.47;    5.968;   -0.010;    0.000; 5.97840
 230.07;  -30.040;  -26.013;    0.000;-4.02690
 230.68;    6.982;    2.994;    0.000; 3.98766
 231.28;   71.958;   -4.014;    0.000;75.97123
 231.88;    3.962;  186.988;    0.000;-183.02597
 232.48;  -25.021;  -37.007;    0.000;11.98557
 233.09;   -5.024;  -13.008;    0.000; 7.98339
 233.69;  -13.031;  -32.010;    0.000;18.97907
 234.29;    1.970;   -0.010;    0.000; 1.97960
 234.90;  -32.041;   15.987;    0.000;-48.02820
 235.50;  -33.062;  -52.020;    0.000;18.95809
 236.10;    4.971;  -34.009;    0.000;38.98027
 236.70;  -43.039;  -28.013;    0.000;-15.02681
 237.31;  -23.043; -117.014;    0.000;93.97051
 237.91;  -42.042;   -0.013;    0.000;-42.02842
 238.51;  -61.025;  -61.008;    0.000;-0.01684
 239.11;   -2.002;   40.999;    0.000;-43.00156
 239.72;  -82.047;  -33.015;    0.000;-49.03216
 240.32;  -30.015;   -4.005;    0.000;-26.01007
 240.92;  -35.040;   52.987;    0.000;-88.02695
 241.53;   18.953;   35.985;    0.000;-17.03203
 242.13;   22.965;   48.989;    0.000;-26.02379
 242.73;   14.971;   39.991;    0.000;-25.01942
 243.33;   -3.009;  -31.003;    0.000;27.99354
 243.93;  -24.042;    2.987;    0.000;-27.02855
 244.54;   -3.032;  -15.010;    0.000;11.97840
 245.14;   -3.035;  -29.011;    0.000;25.97639
 245.74;   10.959;   58.987;    0.000;-48.02757
 246.34;  -16.037;   16.988;    0.000;-33.02548
 246.95;   31.956;  -84.014;    0.000;115.97020
 247.55;    9.962;  -41.012;    0.000;50.97430
 248.15;   15.947;   -4.017;    0.000;19.96401
 248.75;   22.973;   21.991;    0.000; 0.98156
 249.36;   35.948;  -53.017;    0.000;88.96432
 249.96;   25.976;  -78.008;    0.000;103.98361
 250.56;  -43.038;   13.988;    0.000;-57.02570
 251.16;   39.971;  -68.009;    0.000;107.98022
 251.76;   40.964;   37.988;    0.000; 2.97541
 252.37;   11.974;   41.992;    0.000;-30.01737
 252.97;   10.965;  -30.011;    0.000;40.97639
 253.57;  -34.032;   10.990;    0.000;-45.02160
 254.17;   -0.043;   22.986;    0.000;-23.02904
 254.77;   -6.026;   -5.008;    0.000;-1.01782
 255.38;   49.957;  -92.014;    0.000;141.97078
 255.98;  -19.012;    4.996;    0.000;-24.00784
 256.58;    4.974;   47.992;    0.000;-43.01773
 257.18;   -8.034;  -38.011;    0.000;29.97666
 257.78;  -31.033;   23.989;    0.000;-55.02232
 258.38;  -29.032;  -46.010;    0.000;16.97817
 258.99;  -24.022;  -29.007;    0.000; 4.98521
 259.59;  -18.029;  -44.009;    0.000;25.98013
 260.19;   -2.039;  -56.013;    0.000;53.97332
 260.79;    9.962;   27.988;    0.000;-18.02597
 261.39;  -13.043;  189.986;    0.000;-203.02913
 261.99;  -12.045;  -52.014;    0.000;39.96944
 262.60;    4.958;    2.986;    0.000; 1.97114
 263.20;   -7.020;   -0.006;    0.000;-7.01367
 263.80;  -11.058;  -75.019;    0.000;63.96058
 264.40;   18.963;  -33.012;    0.000;51.97488
 265.00;  -56.032;   36.990;    0.000;-93.02191
 265.60;    9.971;  -50.009;    0.000;59.98031
 266.20;  -68.024;  -13.008;    0.000;-55.01666
 266.81;   51.970; -101.010;    0.000;152.97969
 267.41;  -13.041;  -40.013;    0.000;26.97212
 268.01;    5.977;   42.993;    0.000;-37.01590
 268.61;  -17.042;  -32.014;    0.000;14.97118
 269.21;  -38.044;  -22.014;    0.000;-16.02998
 269.81;  -12.020;  -56.006;    0.000;43.98673
 270.41;   16.968;   75.990;    0.000;-59.02151
 271.01;  -21.039;   25.988;    0.000;-47.02632
 271.62;  -31.022;    3.993;    0.000;-35.01483
 272.22;  -53.025;  -44.008;    0.000;-9.01710
 272.82;   39.963;   37.988;    0.000; 1.97506
 273.42;    5.964;   58.989;    0.000;-53.02419
 274.02;  -11.029;    2.991;    0.000;-14.02004
 274.62;  -14.049;   -5.016;    0.000;-9.03305
 275.22;   16.976;  -86.008;    0.000;102.98352
 275.82;    3.958;  -14.013;    0.000;17.97163
 276.42;   -7.041;  -52.013;    0.000;44.97229
 277.02;    9.976;  -32.008;    0.000;41.98383
 277.63;   48.961;  -20.012;    0.000;68.97376
 278.23;  -10.038;  -24.012;    0.000;13.97394
 278.83;   15.957;   -5.014;    0.000;20.97078
 279.43;   11.958;   70.987;    0.000;-59.02824
 280.03;  -41.013;  -34.004;    0.000;-7.00869
 280.63;  -14.036;  -29.011;    0.000;14.97586
 281.23;   12.966;   55.989;    0.000;-43.02325
 281.83;   -4.048;  -44.015;    0.000;39.96753
 282.43;  -22.036;  307.989;    0.000;-330.02432
 283.03;  -31.031;   67.990;    0.000;-99.02080
 283.63;   -3.038;  -54.012;    0.000;50.97412
 284.23;  -14.043;  -23.014;    0.000; 8.97042
 284.83;    9.956;  -30.014;    0.000;39.96989
 285.43;   24.969;   16.990;    0.000; 7.97893
 286.03;  -16.018;  -34.006;    0.000;17.98753
 286.63;  -20.038;   25.988;    0.000;-46.02601
 287.23;  -11.032;  -31.010;    0.000;19.97858
 287.84;  -35.026;  -28.008;    0.000;-7.01755
 288.44;  -16.029;    8.991;    0.000;-25.01942
 289.04;   25.979;  -70.007;    0.000;95.98543
 289.64;   11.972;  -41.009;    0.000;52.98080
 290.24;  -52.064;  -53.021;    0.000; 0.95639
 290.84;  -62.008;  -68.003;    0.000; 5.99443
 291.44;  -76.020;  -35.006;    0.000;-41.01367
 292.04;  -43.013;  -23.004;    0.000;-20.00900
 292.64;   25.974;    1.992;    0.000;23.98223
 293.24;  -58.019;  -28.006;    0.000;-30.01314
 293.84;  -15.040;  -61.013;    0.000;45.97301
 294.44;  -10.038;   30.988;    0.000;-41.02579
 295.04;  -28.026;  -69.008;    0.000;40.98209
 295.64;   -5.016;  -21.005;    0.000;15.98944
 296.24;  -41.016;  -43.005;    0.000; 1.98900
 296.84;   21.979;  -52.007;    0.000;73.98543
 297.44;  -41.032;  -16.010;    0.000;-25.02200
 298.04;  -24.008;  -52.003;    0.000;27.99465
 298.64;  -65.017;  -82.006;    0.000;16.98824
 299.24;   12.963;  -81.012;    0.000;93.97510
 299.84;  -39.017;   72.994;    0.000;-112.01185
 300.44;  -33.028;  -44.009;    0.000;10.98125
 301.04;  -66.011;    2.997;    0.000;-69.00730
 301.64;  -45.039;  -51.012;    0.000; 5.97359
 302.24;  -32.033;  -12.011;    0.000;-20.02245
 302.83;  -10.009;  -27.003;    0.000;16.99385
 303.43;  -61.037;  -75.012;    0.000;13.97492
 304.03;   -9.046;  -32.015;    0.000;22.96869
 304.63;    6.976;  -47.008;    0.000;53.98379
 305.23;  -22.027;  -94.009;    0.000;71.98138
 305.83;   14.970;  -85.010;    0.000;99.97933
 306.43;  -19.031;  -43.010;    0.000;23.97893
 307.03;   -5.038;   80.988;    0.000;-86.02557
 307.63;  -13.030;    2.990;    0.000;-16.02044
 308.23;  -47.036;   13.988;    0.000;-61.02445
 308.83;  -67.039;  -32.012;    0.000;-35.02655
 309.43;    1.951;  -87.016;    0.000;88.96668
 310.03;    8.949;  -17.016;    0.000;25.96517
 310.63;   26.956;    7.986;    0.000;18.97038
 311.23;  -20.052;  -95.017;    0.000;74.96437
 311.83;  -22.032;   -5.010;    0.000;-17.02142
 312.43;    4.978;  -51.007;    0.000;55.98530
 313.02;   37.959;   51.987;    0.000;-14.02771
 313.62;   -1.028; -116.009;    0.000;114.98094
 314.22;  -32.033;  -45.011;    0.000;12.97751
 314.82;  -19.042;   55.987;    0.000;-75.02842
 315.42;  -24.051;   28.984;    0.000;-53.03434
 316.02;   -5.043;    5.986;    0.000;-11.02926
 316.62;  -25.058;  -45.018;    0.000;19.96080
 317.22;  -16.052;  -62.017;    0.000;45.96454
 317.82;  -10.047;  -57.015;    0.000;46.96793
 318.42;  -42.028;  290.991;    0.000;-333.01924
 319.01;   -9.049;   33.984;    0.000;-43.03301
 319.61;   16.948;   -4.017;    0.000;20.96437
 320.21;  -30.048;  -22.015;    0.000;-8.03243
 320.81;   -9.067;   11.978;    0.000;-21.04570
 321.41;   -1.030;   67.990;    0.000;-69.02067
 322.01;   32.958;  -67.014;    0.000;99.97118
 322.61;  -34.061;   20.980;    0.000;-55.04147
 323.21;    2.949;   -1.016;    0.000; 3.96544
 323.80;   24.951; -111.016;    0.000;135.96691
 324.40;    4.926;  -12.024;    0.000;16.94944
 325.00;   -0.063;  -57.020;    0.000;56.95702
 325.60;   -3.062;   18.980;    0.000;-22.04205
 326.20;   -3.056;  -50.018;    0.000;46.96196
 326.80;  -30.064;   18.979;    0.000;-49.04365
 327.40;  -50.078;    8.975;    0.000;-59.05278
 327.99;   -4.095;    1.969;    0.000;-6.06490
 328.59;   -0.100;  -40.032;    0.000;39.93225
 329.19;   11.890;  476.965;    0.000;-465.07479
 329.79;    0.892;  -30.035;    0.000;30.92651
 330.39;   10.886;   78.963;    0.000;-68.07777
 330.99;    5.892;  -52.035;    0.000;57.92628
 331.58;  -42.124;  -68.040;    0.000;25.91559
 332.18;  -24.139;  -67.044;    0.000;42.90570
 332.78;   -8.143;   78.954;    0.000;-87.09706
 333.38;  -41.159;   57.949;    0.000;-99.10815
 333.98;   26.851;  -76.048;    0.000;102.89862
 334.57;    0.843;    0.950;    0.000;-0.10646
 335.17;   -0.148;  -59.047;    0.000;58.89951
 335.77;   -2.141;  -28.045;    0.000;25.90437
 336.37;   14.844;  100.950;    0.000;-86.10579
 336.97;  -17.128;  -13.041;    0.000;-4.08721
 337.56;  -28.136;  -19.043;    0.000;-9.09225
 338.16;   -8.130;   -1.041;    0.000;-7.08806
 338.76;  -37.103;   45.967;    0.000;-83.07029
 339.36;   -5.116;  -45.037;    0.000;39.92112
 339.96;   12.890;  -64.035;    0.000;76.92508
 340.55;  -28.109;   40.965;    0.000;-69.07390
 341.15;  -10.111;  -42.035;    0.000;31.92481
 341.75;   -3.126;   79.960;    0.000;-83.08583
 342.35;  -15.127;  -60.041;    0.000;44.91354
 342.94;  -30.159;   20.949;    0.000;-51.10819
 343.54;   35.865;  -63.043;    0.000;98.90798
 344.14;  -55.138;  -78.044;    0.000;22.90628
 344.74;  -16.149;  -44.048;    0.000;27.89889
 345.33;    3.870;   68.958;    0.000;-65.08868
 345.93;  -11.130;  -31.042;    0.000;19.91167
 346.53;  -18.116;  -25.037;    0.000; 6.92129
 347.13;  -16.122;  -11.039;    0.000;-5.08285
 347.72;  -38.140;  -39.045;    0.000; 0.90472
 348.32;   23.881;   12.962;    0.000;10.91924
 348.92;   -6.126;  -67.040;    0.000;60.91399
 349.52;    4.870;  -16.042;    0.000;20.91127
 350.11;  -40.132;   48.958;    0.000;-89.09006
 350.71;   -7.121;  -17.039;    0.000; 9.91791
 351.31;  -40.115;   -7.037;    0.000;-33.07822
 351.91;   42.884;  -27.037;    0.000;69.92085
 352.50;  -24.118;    4.962;    0.000;-29.08035
 353.10;   33.879;   14.961;    0.000;18.91742
 353.70;   -8.103;   57.967;    0.000;-66.07015
 354.29;   13.877;  432.961;    0.000;-419.08365
 354.89;  -37.139;    0.956;    0.000;-38.09430
 355.49;   29.893;  -27.034;    0.000;56.92753
 356.09;  -37.134;   13.957;    0.000;-51.09109
 356.68;   -6.117;  -57.038;    0.000;50.92018
 357.28;  -37.142;  -49.046;    0.000;11.90321
 357.88;  -31.139;   16.955;    0.000;-48.09461
 358.47;   26.875;  -93.040;    0.000;119.91506
 359.07;   10.883;   52.962;    0.000;-42.07973
 359.67;  -11.120;  -62.038;    0.000;50.91853
 360.26;    6.878;  -24.039;    0.000;30.91733
 360.86;    3.868;  -61.042;    0.000;64.91056
 361.46;  -15.106;   17.966;    0.000;-33.07211
 362.05;  -55.131;   46.958;    0.000;-102.08904
 362.65;   15.892;  -39.034;    0.000;54.92677
 363.25;  -33.108; -113.035;    0.000;79.92664
 363.84;   -4.106;  -70.034;    0.000;65.92762
 364.44;  -30.115;   -8.037;    0.000;-22.07813
 365.04;   19.884;  -20.037;    0.000;39.92080
 365.63;   -2.113;  -71.036;    0.000;68.92308
 366.23;    8.894;  -30.034;    0.000;38.92806
 366.83;  -20.113;  -20.036;    0.000;-0.07679
 367.42;  -47.125;  -52.040;    0.000; 4.91506
 368.02;  -26.114;  -71.036;    0.000;44.92272
 368.62;    0.873;   16.959;    0.000;-16.08663
 369.21;  -46.125;   -8.040;    0.000;-38.08521
 369.81;  -14.122;  261.961;    0.000;-276.08329
 370.41;  -42.092;  -75.029;    0.000;32.93737
 371.00;    0.860;  -67.045;    0.000;67.90486
 371.60;   57.865;   -5.043;    0.000;62.90847
 372.19;  -37.122;  -38.039;    0.000; 0.91724
 372.79;  -17.104;  -72.033;    0.000;54.92931
 373.39;   30.888;    2.964;    0.000;27.92401
 373.98;   35.873;  -31.041;    0.000;66.91341
 374.58;   -5.117;   -2.037;    0.000;-3.07951
 375.17;   12.852;  -58.047;    0.000;70.89965
 375.77;  126.872;  157.959;    0.000;-31.08708
 376.37;  -35.130;  -40.042;    0.000; 4.91154
 376.96;    1.872;   40.959;    0.000;-39.08690
 377.56;  -23.115;   49.963;    0.000;-73.07795
 378.15;   51.882;   18.962;    0.000;32.92000
 378.75;  -11.129;   17.959;    0.000;-29.08748
 379.35;   11.874;  -64.040;    0.000;75.91448
 379.94;   -5.133;   36.958;    0.000;-42.09024
 380.54;   35.862;  -71.044;    0.000;106.90633
 381.13;    3.871;   17.959;    0.000;-14.08766
 381.73;   -2.107;  -29.034;    0.000;26.92731
 382.32;   55.902;  -23.031;    0.000;78.93328
 382.92;   50.874;  -37.040;    0.000;87.91412
 383.52;   83.882;  -33.038;    0.000;116.91996
 384.11;  119.873;  -29.041;    0.000;148.91377
 384.71;  102.862;  -88.044;    0.000;190.90588
 385.30;  177.866;    2.957;    0.000;174.90900
 385.90;  112.875;   57.960;    0.000;54.91479
 386.49;  145.864;  -88.044;    0.000;233.90744
 387.09;  191.859;   21.955;    0.000;169.90406
 387.68;  254.879;  -44.039;    0.000;298.91791
 388.28;  252.878;  -38.039;    0.000;290.91711
 388.87;  331.895;  286.966;    0.000;44.92855
 389.47;  420.863;  -33.044;    0.000;453.90713
 390.07;  559.874;    0.960;    0.000;558.91417
 390.66;  552.884;  -55.037;    0.000;607.92094
 391.26;  557.867; -127.042;    0.000;684.90980
 391.85;  751.872;  -36.041;    0.000;787.91310
 392.45;  869.869;  -80.042;    0.000;949.91114
 393.04;  967.889;  -55.036;    0.000;1022.92428
 393.64; 1097.883;  -83.037;    0.000;1180.92045
 394.23; 1342.875;  -25.040;    0.000;1367.91492
 394.83; 1489.883;  -82.037;    0.000;1571.92049
 395.42; 1738.854;  -29.047;    0.000;1767.90089
 396.02; 1991.886;   82.964;    0.000;1908.92281
 396.61; 2272.860;  -37.045;    0.000;2309.90490
 397.21; 2486.874;  -30.040;    0.000;2516.91435
 397.80; 2898.877;12139.961;    0.000;-9241.08343
 398.40; 3200.874;  107.960;    0.000;3092.91461
 398.99; 3557.875;  -34.040;    0.000;3591.91506
 399.59; 4073.864;  -18.043;    0.000;4091.90762
 400.18; 4676.877;  -10.039;    0.000;4686.91622
 400.78; 5104.879;  -52.039;    0.000;5156.91755
 401.37; 5751.894;  -85.034;    0.000;5836.92798
 401.96; 6270.870;  -81.042;    0.000;6351.91158
 402.56; 7132.879; -102.039;    0.000;7234.91751
 403.15; 7761.877;  -31.039;    0.000;7792.91657
 403.75; 8785.888;  -19.036;    0.000;8804.92397
 404.34; 9711.871;   -2.041;    0.000;9713.91256
 404.94;10782.874;  -82.040;    0.000;10864.91448
 405.53;11747.868; -111.042;    0.000;11858.91043
 406.13;13080.866;   30.957;    0.000;13049.90864
 406.72;13972.891;  -57.035;    0.000;14029.92597
 407.32;15125.875;  -22.040;    0.000;15147.91488
 407.91;16708.879;   38.961;    0.000;16669.91760
 408.50;18117.899;  -31.032;    0.000;18148.93109
 409.10;19431.879;  -48.039;    0.000;19479.91769
 409.69;20403.889;   47.965;    0.000;20355.92481
 410.29;21398.887;  -35.036;    0.000;21433.92290
 410.88;23003.880;  -48.038;    0.000;23051.91831
 411.47;23586.888;  -97.036;    0.000;23683.92361
 412.07;23965.887;  -79.036;    0.000;24044.92339
 412.66;24577.886;  -32.036;    0.000;24609.92276
 413.26;24230.893;  -29.034;    0.000;24259.92695
 413.85;24451.895;  -52.034;    0.000;24503.92842
 414.45;24412.881;   99.962;    0.000;24312.91898
 415.04;23416.894; -105.034;    0.000;23521.92762
 415.63;22182.881;  -21.038;    0.000;22203.91889
 416.23;21972.880;  -22.038;    0.000;21994.91871
 416.82;20481.876;   -3.040;    0.000;20484.91590
 417.41;18981.900;  -98.032;    0.000;19079.93230
 418.01;18189.883;  -60.037;    0.000;18249.92076
 418.60;16160.875;  -20.040;    0.000;16180.91515
 419.20;15625.888;  -76.036;    0.000;15701.92383
 419.79;14020.895;    6.966;    0.000;14013.92833
 420.38;12980.890;  -44.035;    0.000;13024.92526
 420.98;12150.895;  -92.034;    0.000;12242.92855
 421.57;10987.886;  -91.037;    0.000;11078.92227
 422.16;10176.902;   -8.031;    0.000;10184.93310
 422.76; 9429.903;  -44.031;    0.000;9473.93390
 423.35; 9029.891;  -92.035;    0.000;9121.92575
 423.94; 8234.900;  148.968;    0.000;8085.93221
 424.54; 7831.905;  -39.030;    0.000;7870.93568
 425.13; 7497.882;   46.962;    0.000;7450.91978
 425.73; 7100.897;   29.967;    0.000;7070.92967
 426.32; 6446.890;  -33.035;    0.000;6479.92512
 426.91; 6016.907;    8.970;    0.000;6007.93648
 427.51; 5795.912;    8.972;    0.000;5786.93991
 428.10; 5276.902;   -0.031;    0.000;5276.93336
 428.69; 5059.901;  -42.032;    0.000;5101.93274
 429.28; 4822.883; -104.038;    0.000;4926.92022
 429.88; 4403.893;  -31.034;    0.000;4434.92691
 430.47; 4121.911;  -27.029;    0.000;4148.93942
 431.06; 3711.902;   -1.031;    0.000;3712.93319
 431.66; 3623.907;  -35.030;    0.000;3658.93648
 432.25; 3218.902;  -61.031;    0.000;3279.93328
 432.84; 2943.915; -103.027;    0.000;3046.94187
 433.44; 2830.891;  -51.035;    0.000;2881.92575
 434.03; 2605.914;  -58.028;    0.000;2663.94134
 434.62; 2265.903;  -27.031;    0.000;2292.93381
 435.22; 2350.929;  -18.023;    0.000;2368.95158
 435.81; 2105.907;  -39.030;    0.000;2144.93675
 436.40; 1812.918;  -79.026;    0.000;1891.94446
 436.99; 1828.903;  -28.031;    0.000;1856.93399
 437.59; 1728.907; -101.030;    0.000;1829.93688
 438.18; 1598.916;    1.973;    0.000;1596.94299
 438.77; 1432.918; -101.026;    0.000;1533.94450
 439.36; 1343.904;  -47.031;    0.000;1390.93457
 439.96; 1327.927;   61.977;    0.000;1265.95056
 440.55; 1273.911;  -66.029;    0.000;1339.93933
 441.14; 1144.918;    2.974;    0.000;1141.94405
 441.73; 1065.890;  -20.035;    0.000;1085.92535
 442.33; 1027.899; -111.032;    0.000;1138.93136
 442.92;  945.923;   23.975;    0.000;921.94784
 443.51;  864.910;  -23.029;    0.000;887.93911
 444.10;  799.905;  -42.030;    0.000;841.93528
 444.70;  706.924;  -64.024;    0.000;770.94851
 445.29;  581.899;  -75.032;    0.000;656.93158
 445.88;  630.908;  -94.030;    0.000;724.93711
 446.47;  547.924;   22.976;    0.000;524.94864
 447.07;  537.921;  -87.025;    0.000;624.94601
 447.66;  432.905;   -5.030;    0.000;437.93528
 448.25;  430.916;    6.973;    0.000;423.94294
 448.84;  386.914;  -22.028;    0.000;408.94125
 449.43;  395.935;  -60.021;    0.000;455.95608
 450.03;  344.893;   58.966;    0.000;285.92735
 450.62;  351.903; -126.031;    0.000;477.93381
 451.21;  248.898;  -56.033;    0.000;304.93056
 451.80;  318.915;   56.973;    0.000;261.94214
 452.39;  269.921;  -91.025;    0.000;360.94619
 452.99;  251.927;  -46.023;    0.000;297.95069
 453.58;  187.925;  -42.024;    0.000;229.94904
 454.17;  165.942;  -50.019;    0.000;215.96054
 454.76;  208.934;   26.979;    0.000;181.95510
 455.35;  192.927;   32.976;    0.000;159.95002
 455.95;  179.915;  -28.027;    0.000;207.94232
 456.54;  219.934;  -33.021;    0.000;252.95546
 457.13;  142.917;  -52.026;    0.000;194.94379
 457.72;  153.940;  -46.019;    0.000;199.95920
 458.31;  135.937; -109.020;    0.000;244.95702
 458.90;  171.921;   25.975;    0.000;145.94601
 459.50;  119.917;   -2.027;    0.000;121.94356
 460.09;  150.912;  -72.028;    0.000;222.93982
 460.68;   52.924;  -92.024;    0.000;144.94811
 461.27;  143.921;  -24.025;    0.000;167.94606
 461.86;   33.928;  -20.023;    0.000;53.95123
 462.45;  113.955;    2.986;    0.000;110.96935
 463.04;   60.919;  -57.026;    0.000;117.94477
 463.64;  167.946;   69.983;    0.000;97.96312
 464.23;   41.922;   44.975;    0.000;-3.05314
 464.82;   68.930;  -30.022;    0.000;98.95238
 465.41;    8.956;  -50.014;    0.000;58.96980
 466.00;  121.930;  -48.022;    0.000;169.95265
 466.59;   -0.049;    7.984;    0.000;-8.03363
 467.18;   38.944;  -41.018;    0.000;79.96201
 467.77;   21.935;  -56.021;    0.000;77.95550
 468.37;   25.921;  -63.025;    0.000;88.94624
 468.96;   28.921;  -33.025;    0.000;61.94606
 469.55;   33.929;   35.977;    0.000;-2.04833
 470.14;   12.922;  -10.025;    0.000;22.94673
 470.73;    0.914;   15.972;    0.000;-15.05853
 471.32;   18.934;  -45.021;    0.000;63.95523
 471.91;   39.939;  -52.020;    0.000;91.95826
 472.50;  -55.089;  -75.028;    0.000;19.93973
 473.09;   39.951; -113.016;    0.000;152.96655
 473.68;   21.915;   42.973;    0.000;-21.05777
 474.27;   -5.053;  -68.017;    0.000;62.96388
 474.86;   25.931;  -87.022;    0.000;112.95323
 475.46;   27.940;  -19.019;    0.000;46.95938
 476.05;  -10.060;   77.981;    0.000;-88.04102
 476.64;   -3.057;  -48.018;    0.000;44.96098
 477.23;    2.935;  -91.021;    0.000;93.95550
 477.82;   10.940; -115.019;    0.000;125.95920
 478.41;  -54.059;  -83.019;    0.000;28.95956
 479.00;   38.935;  -19.021;    0.000;57.95568
 479.59;   45.924;   22.976;    0.000;22.94860
 480.18;  -27.053;   62.983;    0.000;-90.03635
 480.77;  -25.054;  -51.017;    0.000;25.96312
 481.36;   52.946;  -89.017;    0.000;141.96343
 481.95;    4.933;   10.979;    0.000;-6.04543
 482.54;   -5.081; -106.026;    0.000;100.94517
 483.13;  -32.068;  -40.022;    0.000; 7.95354
 483.72;  -25.050;  -49.016;    0.000;23.96606
 484.31;  -38.059; -102.019;    0.000;63.96000
 484.90;  -14.057;  -20.018;    0.000; 5.96143
 485.49;   -1.041;  -60.013;    0.000;58.97180
 486.08;    3.949;  -44.016;    0.000;47.96539
 486.67;  -43.046;  -26.015;    0.000;-17.03127
 487.26;  -15.047;  -19.015;    0.000; 3.96788
 487.85;    8.942;  -87.018;    0.000;95.96076
 488.44;    8.932;  -98.022;    0.000;106.95368
 489.03;  -10.053;   46.983;    0.000;-57.03608
 489.62;  -32.046;  -39.015;    0.000; 6.96842
 490.21;  -20.055; -101.018;    0.000;80.96281
 490.80;    9.952;  -51.015;    0.000;60.96748
 491.39;   -8.055; -120.018;    0.000;111.96267
 491.98;   -1.050;   -0.016;    0.000;-1.03390
 492.57;   13.962;  -63.012;    0.000;76.97390
 493.16;    3.937;  -42.020;    0.000;45.95711
 493.75;   18.938;  -77.020;    0.000;95.95791
 494.34;   15.942;   -8.019;    0.000;23.96062
 494.93;   -5.043;  -57.014;    0.000;51.97087
 495.52;   -9.063;  -73.020;    0.000;63.95706
 496.11;  -38.061;  -48.019;    0.000; 9.95858
 496.70;   -3.077;  -84.025;    0.000;80.94757
 497.29;   -6.059;  -31.019;    0.000;24.95960
 497.88;   56.946;   13.983;    0.000;42.96321
 498.47;  -13.053;   27.983;    0.000;-41.03577
 499.06;  -11.063;   27.980;    0.000;-39.04276
 499.64;  -24.050;  -57.016;    0.000;32.96588
 500.23;   32.942;  -57.019;    0.000;89.96031
 500.82;  -18.056;  -52.018;    0.000;33.96178
 501.41;    2.931;   29.978;    0.000;-27.04664
 502.00;   23.938;  -83.020;    0.000;106.95773
 502.59;    1.945;  -40.018;    0.000;41.96281
 503.18;  -42.057;  -28.018;    0.000;-14.03889
 503.77;   10.943; -122.018;    0.000;132.96129
 504.36;  -45.054;   45.983;    0.000;-91.03639
 504.95;   -8.056; -141.018;    0.000;132.96218
 505.54;   26.941;  -93.019;    0.000;119.95991
 506.12;    2.943;   99.982;    0.000;-97.03857
 506.71;  -17.057;  -54.018;    0.000;36.96152
 507.30;    8.929;   -3.023;    0.000;11.95140
 507.89;  -24.071;  -52.023;    0.000;27.95167
 508.48;    6.948;  -72.017;    0.000;78.96490
 509.07;   20.922;   -7.025;    0.000;27.94708
 509.66;  -11.050;   10.984;    0.000;-22.03403
 510.25;  -50.070;  -83.022;    0.000;32.95238
 510.84;   51.937;  -32.020;    0.000;83.95746
 511.42;   12.943;  -31.018;    0.000;43.96098
 512.01;    3.970;  108.990;    0.000;-105.02022
 512.60;  -42.061;  -16.020;    0.000;-26.04169
 513.19;  -35.063;  -75.020;    0.000;39.95711
 513.78;   39.934;  -91.021;    0.000;130.95519
 514.37;   -4.050;  -35.016;    0.000;30.96615
 514.95;  -50.040;  -75.013;    0.000;24.97247
 515.54;  -37.054;   13.983;    0.000;-51.03688
 516.13;    5.939;  -89.020;    0.000;94.95831
 516.72;   11.949;  -33.016;    0.000;44.96512
 517.31;    1.950;  -29.016;    0.000;30.96597
 517.90;    4.953;  -19.015;    0.000;23.96797
 518.48;  -25.052;  -68.017;    0.000;42.96441
 519.07;   10.936;  -16.021;    0.000;26.95617
 519.66;   -4.044;  125.986;    0.000;-130.02989
 520.25;   20.952;  -34.015;    0.000;54.96748
 520.84;  -24.058;    0.981;    0.000;-25.03933
 521.43;  -33.046;  -56.015;    0.000;22.96895
 522.01;  -25.047;   62.985;    0.000;-88.03167
 522.60;   -2.054;    8.983;    0.000;-11.03644
 523.19;   -6.051;   -4.016;    0.000;-2.03452
 523.78;   21.942;  -31.019;    0.000;52.96027
 524.37;  -17.066;   -7.021;    0.000;-10.04463
 524.95;    0.957;  -52.014;    0.000;52.97069
 525.54;  -15.059;    0.981;    0.000;-16.04004
 526.13;    6.945;  -80.018;    0.000;86.96232
 526.72;    2.967;   10.989;    0.000;-8.02272
 527.30;  -31.045;  -53.015;    0.000;21.96913
 527.89;  -32.060;  -69.019;    0.000;36.95942
 528.48;   35.957;    2.986;    0.000;32.97047
 529.07;   20.943;   -3.018;    0.000;23.96116
 529.65;  -23.039;  113.987;    0.000;-137.02673
 530.24;  -50.058;   -0.018;    0.000;-50.03911
 530.83;  -16.041;  -70.013;    0.000;53.97194
 531.42;  -48.046;   -4.015;    0.000;-44.03118
 532.00;   -6.052;  -25.017;    0.000;18.96450
 532.59;  -18.034;  -12.011;    0.000;-6.02343
 533.18;  -15.035;   11.989;    0.000;-27.02396
 533.77;   31.946;   47.983;    0.000;-16.03684
 534.35;    3.953;   -8.015;    0.000;11.96815
 534.94;  -43.046;  -60.015;    0.000;16.96904
 535.53;   16.967;   67.989;    0.000;-51.02245
 536.12;    5.940;  -19.019;    0.000;24.95920
 536.70;  -46.031;  -94.010;    0.000;47.97924
 537.29;  -62.040;  -25.013;    0.000;-37.02735
 537.88;   11.960;  -46.013;    0.000;57.97292
 538.46;   -4.049;  -77.016;    0.000;72.96646
 539.05;  -17.039;  -27.013;    0.000; 9.97341
 539.64;  -59.032;   13.990;    0.000;-73.02156
 540.23;   58.956;   17.986;    0.000;40.96993
 540.81;   -0.035;  101.989;    0.000;-102.02410
 541.40;   39.943;  -76.018;    0.000;115.96098
 541.99;   -1.044;  -35.014;    0.000;33.96993
 542.57;  -30.040;  -71.013;    0.000;40.97283
 543.16;  -39.051;  -16.016;    0.000;-23.03488
 543.75;  -18.026;   10.992;    0.000;-29.01786
 544.33;  -34.041;   54.987;    0.000;-89.02762
 544.92;   -1.027;    8.991;    0.000;-10.01853
 545.51;    0.957;   26.986;    0.000;-26.02895
 546.09;  -38.050;    1.984;    0.000;-40.03416
 546.68;  -23.048;   19.984;    0.000;-43.03296
 547.27;   36.968;  -14.010;    0.000;50.97826
 547.85;   18.964;   -3.012;    0.000;21.97546
 548.44;  -50.030;  -54.010;    0.000; 3.97933
 549.03;  -43.029;  -28.009;    0.000;-15.01955
 549.61;  -28.050;  -64.016;    0.000;35.96597
 550.20;   -4.035;  -62.011;    0.000;57.97630
 550.78;  -47.043;   54.986;    0.000;-102.02935
 551.37;  -51.018;  -76.006;    0.000;24.98775
 551.96;   -6.028;  -30.009;    0.000;23.98129
 552.54;  -22.062;  -55.020;    0.000;32.95813
 553.13;    7.953;  -59.015;    0.000;66.96771
 553.72;   -8.040;  -92.013;    0.000;83.97265
 554.30;  -18.019;   47.994;    0.000;-66.01296
 554.89;  -25.020;  -54.006;    0.000;28.98628
 555.47;  -15.035;  -11.011;    0.000;-4.02405
 556.06;  -54.045;  -39.014;    0.000;-15.03060
 556.65;    9.963;   -6.012;    0.000;15.97457
 557.23;   -9.039;  -27.013;    0.000;17.97336
 557.82;    4.971;  -93.009;    0.000;97.98031
 558.40;  -12.036;  -89.011;    0.000;76.97581
 558.99;    2.940;  -39.019;    0.000;41.95893
 559.58;   28.952;  -62.015;    0.000;90.96766
 560.16;    2.941;  -99.019;    0.000;101.95996
 560.75;  -62.051;  -70.016;    0.000; 7.96517
 561.33;   39.964;   51.988;    0.000;-12.02445
 561.92;   22.952;  -69.015;    0.000;91.96726
 562.50;   11.967;   12.990;    0.000;-1.02227
 563.09;  -63.040;  -39.013;    0.000;-24.02690
 563.68;   -9.037;  -31.012;    0.000;21.97501
 564.26;  -42.043;  -95.014;    0.000;52.97074
 564.85;  -39.039;  -18.012;    0.000;-21.02641
 565.43;  -72.044;  -27.014;    0.000;-45.03007
 566.02;    9.959;  -49.013;    0.000;58.97180
 566.60;   -7.031;   -5.010;    0.000;-2.02111
 567.19;  -65.045;  -91.014;    0.000;25.96971
 567.77;  -24.022;  -96.007;    0.000;71.98508
 568.36;  -18.026;   50.992;    0.000;-69.01751
 568.94;  -45.034;  -64.011;    0.000;18.97702
 569.53;  -46.036;    1.988;    0.000;-48.02477
 570.11;  -47.020;  -45.006;    0.000;-2.01381
 570.70;   -8.034;  -62.011;    0.000;53.97711
 571.28;  -11.056;   59.982;    0.000;-71.03777
 571.87;   10.980;  -56.007;    0.000;66.98615
 572.45;  -29.029;  -62.009;    0.000;32.98022
 573.04;  -16.052;  -66.016;    0.000;49.96495
 573.62;    9.967; -112.011;    0.000;121.97764
 574.21;   61.963;   51.988;    0.000; 9.97497
 574.79;   14.942;    8.981;    0.000; 5.96045
 575.38;   -7.033;    0.989;    0.000;-8.02276
 575.96;  -54.021;  -76.007;    0.000;21.98561
 576.55;   -5.028;  -62.009;    0.000;56.98098
 577.13;  -19.023;   14.993;    0.000;-34.01563
 577.72;  -49.031; -121.010;    0.000;71.97915
 578.30;  -56.042;  -53.013;    0.000;-3.02851
 578.89;  -29.019;  -90.006;    0.000;60.98686
 579.47;   -9.041;  -44.013;    0.000;34.97243
 580.06;  -12.049;  -24.016;    0.000;11.96659
 580.64;  -27.032;  -72.010;    0.000;44.97791
 581.23;  -20.033;  -48.011;    0.000;27.97764
 581.81;  -29.039;   69.987;    0.000;-99.02673
 582.39;   20.969;  -32.010;    0.000;52.97862
 582.98;  -24.050;  -45.016;    0.000;20.96628
 583.56;   -0.054;  -24.017;    0.000;23.96325
 584.15;  -12.042;   18.986;    0.000;-31.02886
 584.73;   -3.053;  -21.017;    0.000;17.96419
 585.32;  -80.042;   32.987;    0.000;-113.02860
 585.90;   21.948;  191.983;    0.000;-170.03537
 586.48;  -22.037;  -35.012;    0.000;12.97483
 587.07;  -18.035;   15.989;    0.000;-34.02410
 587.65;   23.964;   45.989;    0.000;-22.02428
 588.24;   15.968;    2.990;    0.000;12.97835
 588.82;    2.966;  -59.011;    0.000;61.97662
 589.41;   26.971; 1498.991;    0.000;-1472.01987
 589.99;  -17.045;   -7.014;    0.000;-10.03056
 590.57;   -6.023; -131.007;    0.000;124.98414
 591.16;  -28.047;   51.985;    0.000;-80.03176
 591.74;   12.967;  -35.011;    0.000;47.97724
 592.32;  -61.028;   11.991;    0.000;-73.01902
 592.91;  -21.048;   62.985;    0.000;-84.03256
 593.49;   -7.027;  -53.009;    0.000;45.98151
 594.08;  -36.044;  -62.014;    0.000;25.97033
 594.66;  -36.028;   34.991;    0.000;-71.01933
 595.24;  -25.026;   -2.008;    0.000;-23.01777
 595.83;  -29.039;  -90.012;    0.000;60.97376
 596.41;  -68.016;  -24.005;    0.000;-44.01096
 596.99;  -46.026;    9.992;    0.000;-56.01737
 597.58;  -34.030;  -36.010;    0.000; 1.97978
 598.16;  -81.053;  -28.017;    0.000;-53.03586
 598.74;    4.968;   78.990;    0.000;-74.02160
 599.33;  -20.041;  -39.013;    0.000;18.97225
 599.91;  -31.044;  -51.014;    0.000;19.97025
 600.49;  -27.048;  -41.015;    0.000;13.96708
 601.08;   40.973;   25.991;    0.000;14.98156
 601.66;   37.972;  -92.009;    0.000;129.98067
 602.24;  -16.024;  -81.008;    0.000;64.98379
 602.83;  -20.025;  -43.008;    0.000;22.98307
 603.41;  -34.028;   -8.009;    0.000;-26.01889
 603.99;  -32.068;  -24.022;    0.000;-8.04637
 604.58;  -15.032;   -0.010;    0.000;-15.02191
 605.16;  -86.039;  -42.013;    0.000;-44.02686
 605.74;   -0.033;  -63.011;    0.000;62.97724
 606.33;   38.970;  -19.010;    0.000;57.97960
 606.91;  -16.044;  -20.014;    0.000; 3.96980
 607.49;  -40.040;  -57.013;    0.000;16.97296
 608.07;   -3.027;    8.992;    0.000;-12.01804
 608.66;  -44.030;  -87.010;    0.000;42.97956
 609.24;  -13.029;  -61.009;    0.000;47.98053
 609.82;   21.964;  -27.012;    0.000;48.97519
 610.41;    9.965;  -48.011;    0.000;57.97595
 610.99;  -28.031; -103.010;    0.000;74.97875
 611.57;  -12.020;  -25.006;    0.000;12.98664
 612.15;  -31.035;  -40.011;    0.000; 8.97599
 612.74;  -19.019;   34.994;    0.000;-54.01318
 613.32;  -45.034;  -37.011;    0.000;-8.02307
 613.90;   -2.030;   22.990;    0.000;-25.02022
 614.48;   11.961;  -46.012;    0.000;57.97372
 615.07;  -14.052;  -24.017;    0.000; 9.96472
 615.65;  -54.015;  -18.005;    0.000;-36.01007
 616.23;  -61.034;  -70.011;    0.000; 8.97706
 616.81;  -57.058; -112.019;    0.000;54.96031
 617.40;  -54.072;  -59.023;    0.000; 4.95087
 617.98;  -49.085;  -17.027;    0.000;-32.05786
 618.56;  -17.054; -157.017;    0.000;139.96352
 619.14;  -51.062;  -48.020;    0.000;-3.04232
 619.72;  -19.061;  -76.020;    0.000;56.95822
 620.31;   -1.048;   16.985;    0.000;-18.03243
 620.89;  -39.040;   27.987;    0.000;-67.02699
 621.47;  -45.042;  -84.014;    0.000;38.97127
 622.05;   11.961;  -88.013;    0.000;99.97332
 622.63;  -44.050; -105.016;    0.000;60.96624
 623.22;  -11.025;  -55.008;    0.000;43.98290
 623.80;  -16.052;  -27.017;    0.000;10.96463
 624.38;  -11.034;   93.989;    0.000;-105.02343
 624.96;  -20.050;  -55.016;    0.000;34.96628
 625.54;    1.954;  -58.015;    0.000;59.96891
 626.13;  -64.028;  -33.009;    0.000;-31.01889
 626.71;  -60.040;  396.987;    0.000;-457.02726
 627.29;  -86.066;  -58.021;    0.000;-28.04454
 627.87;  -10.041;  -37.013;    0.000;26.97180
 628.45;   -5.040;  -74.013;    0.000;68.97301
 629.03;    7.955;   33.985;    0.000;-26.03091
 629.62;  -34.047;  -39.015;    0.000; 4.96806
 630.20;  -33.045; -111.014;    0.000;77.96944
 630.78;   -5.036;   23.988;    0.000;-29.02450
 631.36;  -17.054;  -47.017;    0.000;29.96307
 631.94;  -12.034;    5.989;    0.000;-18.02330
 632.52;  -47.029;    6.991;    0.000;-54.01995
 633.10;  -41.054;  -19.017;    0.000;-22.03675
 633.68;   -9.050;  -86.016;    0.000;76.96601
 634.27;  -51.046;  -31.015;    0.000;-20.03149
 634.85;  -20.052;  -75.017;    0.000;54.96472
 635.43;  -50.067;  -78.022;    0.000;27.95412
 636.01;  -35.040;  -77.013;    0.000;41.97310
 636.59;  -57.043;  -60.014;    0.000; 2.97065
 637.17;  -30.077;    8.975;    0.000;-39.05252
 637.75;  -26.056;  -61.018;    0.000;34.96192
 638.33;  -15.058;  -73.018;    0.000;57.96076
 638.91;  -10.052;   19.983;    0.000;-30.03563
 639.50;  -33.070;  -84.022;    0.000;50.95270
 640.08;  -37.049;  -99.016;    0.000;61.96698
 640.66;  -15.048; -116.015;    0.000;100.96706
 641.24;  -44.048;   31.985;    0.000;-76.03286
 641.82;  -15.048;  -34.015;    0.000;18.96723
 642.40;  -13.048;  -31.015;    0.000;17.96731
 642.98;   -1.048;  -39.015;    0.000;37.96739
 643.56;   27.952;  -69.015;    0.000;96.96747
 644.14;   -6.048;  -16.015;    0.000; 9.96755
 644.72;  -40.048;  -36.015;    0.000;-4.03237
 645.30;  -27.047;  -19.015;    0.000;-8.03229
 645.88;   -9.047;  -93.015;    0.000;83.96779
 646.46;   -8.047;  -46.015;    0.000;37.96787
 647.04;  -45.047;  -31.015;    0.000;-14.03205
 647.62;  -32.047;   43.985;    0.000;-76.03197
 648.20;   -6.047;  -27.015;    0.000;20.96812
 648.78;   -5.047;   13.985;    0.000;-19.03180
 649.36;  -44.047;   -2.015;    0.000;-42.03172
 649.94;  -13.047;  -51.015;    0.000;37.96836
 650.52;  -20.046; -105.015;    0.000;84.96844
 651.11;  -55.046;  -67.015;    0.000;11.96852
 651.69;  -57.046;  -26.015;    0.000;-31.03140
 652.27;  -50.046;  -61.015;    0.000;10.96868
 652.85;  -43.046; -143.015;    0.000;99.96876
 653.43;   11.954;  -46.015;    0.000;57.96884
 654.01;  -44.046;  -71.015;    0.000;26.96892
 654.59;    0.954;  -81.015;    0.000;81.96901
 655.17;  -99.045; -112.015;    0.000;12.96909
 655.74;  -80.045;  -69.015;    0.000;-11.03083
 656.32;    9.955;  -12.014;    0.000;21.96925
 656.90;  -22.045;  -51.014;    0.000;28.96933
 657.48;  -48.045;   77.986;    0.000;-126.03059
 658.06;  -34.045;  -74.014;    0.000;39.96949
 658.64;  -34.045;  -34.014;    0.000;-0.03043
 659.22;    2.955; -116.014;    0.000;118.96965
 659.80;  -15.045;  -73.014;    0.000;57.96973
 660.38;  -40.044;  -45.014;    0.000; 4.96981
 660.96;  -51.044;  -94.014;    0.000;42.96990
 661.54;   -9.044;  -69.014;    0.000;59.96998
 662.12;  -29.044;   -9.014;    0.000;-20.02994
 662.70;   -6.044;  -52.014;    0.000;45.97014
 663.28;  -88.044;   -4.014;    0.000;-84.02978
 663.86;  -58.044;   -7.014;    0.000;-51.02970
 664.44;  -29.044;   -8.014;    0.000;-21.02962
 665.02;  -55.043;   -0.014;    0.000;-55.02954
 665.60;  -53.043;  -41.014;    0.000;-12.02946
 666.18;  -16.043;  -10.014;    0.000;-6.02938
 666.75;  -51.043;   40.986;    0.000;-92.02930
 667.33;   -1.043;  -70.014;    0.000;68.97079
 667.91;    5.957;  130.986;    0.000;-125.02913
 668.49;  -33.043;    9.986;    0.000;-43.02905
 669.07;   -4.043;  -12.014;    0.000; 7.97103
 669.65;  -56.042;  -49.014;    0.000;-7.02889
 670.23;  -13.042;  -74.014;    0.000;60.97119
 670.81;  -17.042;  -28.014;    0.000;10.97127
 671.39;    6.958;  -84.013;    0.000;90.97135
 671.97;  -20.042;  -20.013;    0.000;-0.02857
 672.54;  -12.042;  -32.013;    0.000;19.97151
 673.12;    8.958;  -13.013;    0.000;21.97160
 673.70;    0.958;  -25.013;    0.000;25.97168
 674.28;  -23.042;  -12.013;    0.000;-11.02824
 674.86;  -56.041;  -77.013;    0.000;20.97184
 675.44;  -20.041;  -28.013;    0.000; 7.97192
 676.02;   -8.041;   23.987;    0.000;-32.02800
 676.59;  -42.041;  -26.013;    0.000;-16.02792
 677.17;   -6.041;  -27.013;    0.000;20.97216
 677.75;   25.959;  -50.013;    0.000;75.97224
 678.33;   -6.041; -119.013;    0.000;112.97232
 678.91;  -28.041;  -56.013;    0.000;27.97240
 679.49;  -69.040;  -52.013;    0.000;-17.02751
 680.06;  -21.040;  -79.013;    0.000;57.97257
 680.64;  -63.040;  -84.013;    0.000;20.97265
 681.22;   -3.040;  -77.013;    0.000;73.97273
 681.80;  -24.040; -101.013;    0.000;76.97281
 682.38;  -47.040;   -0.013;    0.000;-47.02711
 682.96;  -41.040;    8.987;    0.000;-50.02703
 683.53;  -28.040;    1.987;    0.000;-30.02695
 684.11;   15.960;  -52.013;    0.000;67.97313
 684.69;   23.961;  -68.013;    0.000;91.97321
 685.27;    3.961;   28.987;    0.000;-25.02671
 685.85;   16.961;  -27.013;    0.000;43.97338
 686.42;  -42.039;  -34.012;    0.000;-8.02654
 687.00;    9.961;  -46.012;    0.000;55.97354
 687.58;  -26.039;  -49.012;    0.000;22.97362
 688.16;    5.961;  -93.012;    0.000;98.97370
 688.73;  -18.039;  -67.012;    0.000;48.97378
 689.31;    8.962;   48.988;    0.000;-40.02614
 689.89;   28.962;  -28.012;    0.000;56.97394
 690.47;   -7.038;   71.988;    0.000;-79.02598
 691.04;  -25.038;  -14.012;    0.000;-11.02590
 691.62;  -31.038;   32.988;    0.000;-64.02582
 692.20;  -22.038;  -93.012;    0.000;70.97427
 692.78;   -6.038;   -4.012;    0.000;-2.02565
 693.35;  -30.038;  -23.012;    0.000;-7.02557
 693.93;    4.963;  -83.012;    0.000;87.97451
 694.51;  -16.037; -143.012;    0.000;126.97459
 695.09;   42.963;  -98.012;    0.000;140.97467
 695.66;  -11.037;  -71.012;    0.000;59.97475
 696.24;   10.963; -143.012;    0.000;153.97483
 696.82;  -54.037;  -27.012;    0.000;-27.02509
 697.39;  -12.037;  -79.012;    0.000;66.97499
 697.97;  -41.037;  -82.012;    0.000;40.97507
 698.55;  -14.037; -149.012;    0.000;134.97516
 699.13;    0.964;  -73.012;    0.000;73.97524
 699.70;   -7.036; -105.012;    0.000;97.97532
 700.28;  -32.036;  -71.012;    0.000;38.97540
 700.86;  -13.036;  -37.012;    0.000;23.97548
 701.43;  -41.036;  -50.012;    0.000; 8.97556
 702.01;   11.964;  -86.011;    0.000;97.97564
 702.59;  -48.036;  -48.011;    0.000;-0.02428
 703.16;  -52.036; -103.011;    0.000;50.97580
 703.74;  -27.035;  -12.011;    0.000;-15.02412
 704.32;  -65.035;   74.989;    0.000;-140.02403
 704.89;  -84.035;  -58.011;    0.000;-26.02395
 705.47;  -82.035;  -52.011;    0.000;-30.02387
 706.05;  -32.035;  -53.011;    0.000;20.97621
 706.62;    3.965;  -22.011;    0.000;25.97629
 707.20;  -63.035;  -72.011;    0.000; 8.97637
 707.78;  -38.035;  -57.011;    0.000;18.97645
 708.35;  -25.035; -105.011;    0.000;79.97653
 708.93;  -12.034;   23.989;    0.000;-36.02339
 709.51;  -38.034;  -78.011;    0.000;39.97669
 710.08;  -18.034; -112.011;    0.000;93.97677
 710.66;  -69.034;   -0.011;    0.000;-69.02314
 711.23;   14.966;  -34.011;    0.000;48.97694
 711.81;  -34.034; -127.011;    0.000;92.97702
 712.39;  -47.034;   -9.011;    0.000;-38.02290
 712.96;  -23.034;  -71.011;    0.000;47.97718
 713.54;  -11.033;  -88.011;    0.000;76.97726
 714.11;  -51.033;  -82.011;    0.000;30.97734
 714.69;  -73.033;  -57.011;    0.000;-16.02258
 715.27;  -72.033;  -36.011;    0.000;-36.02250
 715.84;   15.967;  -35.011;    0.000;50.97758
 716.42;  -42.033;  -61.011;    0.000;18.97766
 716.99;   11.967;  -47.010;    0.000;58.97775
 717.57;    6.967;  259.990;    0.000;-253.02217
 718.15;  -16.032;  -22.010;    0.000; 5.97791
 718.72;  -32.032;    2.990;    0.000;-35.02201
 719.30;  -13.032;  -90.010;    0.000;76.97807
 719.87;  -56.032; -131.010;    0.000;74.97815
 720.45;  -75.032; -100.010;    0.000;24.97823
 721.02;  -16.032;  -64.010;    0.000;47.97831
 721.60;  -46.032; -114.010;    0.000;67.97839
 722.17;  -33.032;  -62.010;    0.000;28.97847
 722.75;   29.968;  -69.010;    0.000;98.97855
 723.33;   15.969;  -99.010;    0.000;114.97864
 723.90;  -10.031;  -10.010;    0.000;-0.02128
 724.48;  -17.031;  -40.010;    0.000;22.97880
 725.05;  -31.031;  -79.010;    0.000;47.97888
 725.63;  -59.031;   25.990;    0.000;-85.02104
 726.20;   -4.031;  -15.010;    0.000;10.97904
 726.78;   -9.031;  -98.010;    0.000;88.97912
 727.35;  -19.031;   21.990;    0.000;-41.02080
 727.93;  -54.030;  -91.010;    0.000;36.97928
 728.50;  -70.030;  112.990;    0.000;-183.02064
 729.08;  -26.030;  -13.010;    0.000;-13.02056
 729.65;  -37.030;   70.990;    0.000;-108.02047
 730.23;  -52.030;  -74.010;    0.000;21.97961
 730.80;  -43.030;  -35.010;    0.000;-8.02031
 731.38;   -5.030;  -87.010;    0.000;81.97977
 731.95;    2.970;   47.991;    0.000;-45.02015
 732.53;   14.970;  -34.009;    0.000;48.97993
 733.10;  -38.029;  -37.009;    0.000;-1.01999
 733.68;  -88.029; -113.009;    0.000;24.98009
 734.25; -103.029;  -81.009;    0.000;-22.01983
 734.82;  -51.029;  -25.009;    0.000;-26.01975
 735.40;   -7.029;  -87.009;    0.000;79.98034
 735.97;  -59.029;   -6.009;    0.000;-53.01958
 736.55;    1.971;  -22.009;    0.000;23.98050
 737.12;  -54.029;  -32.009;    0.000;-22.01942
 737.70;  -14.028; -100.009;    0.000;85.98066
 738.27;  -40.028;  -51.009;    0.000;10.98074
 738.85;  -28.028; -101.009;    0.000;72.98082
 739.42;  -39.028;  -92.009;    0.000;52.98090
 739.99;  -45.028;   17.991;    0.000;-63.01902
 740.57;  -59.028;  -21.009;    0.000;-38.01894
 741.14;  -10.028;   -7.009;    0.000;-3.01886
 741.72;  -24.028;  -60.009;    0.000;35.98123
 742.29;  -90.027;  -94.009;    0.000; 3.98131
 742.87;  -55.027;  -80.009;    0.000;24.98139
 743.44;    7.973;  -58.009;    0.000;65.98147
 744.01;  -29.027;  -75.009;    0.000;45.98155
 744.59;   27.973;  -68.009;    0.000;95.98163
 745.16;  -31.027;  -40.009;    0.000; 8.98171
 745.73;  -26.027; -106.009;    0.000;79.98179
 746.31;   11.973;  -58.009;    0.000;69.98187
 746.88;  -19.027; -137.008;    0.000;117.98195
 747.46;  -24.026;    2.992;    0.000;-27.01797
 748.03;   -2.026;  -94.008;    0.000;91.98212
 748.60;  -17.026;  -38.008;    0.000;20.98220
 749.18; -112.026;  -71.008;    0.000;-41.01772
 749.75;  -44.026;   25.992;    0.000;-70.01764
 750.32;  -16.026; -104.008;    0.000;87.98244
 750.90;  -15.026;  -62.008;    0.000;46.98252
 751.47;    0.974;   28.992;    0.000;-28.01740
 752.04; -100.025;  -71.008;    0.000;-29.01732
 752.62;  -60.025;  -81.008;    0.000;20.98276
 753.19;    5.975;  -13.008;    0.000;18.98284
 753.76;  -40.025;  -97.008;    0.000;56.98292
 754.34;  -36.025;   -1.008;    0.000;-35.01699
 754.91;  -12.025;  -67.008;    0.000;54.98309
 755.48;  -40.025;  -26.008;    0.000;-14.01683
 756.06;  -41.025;   35.992;    0.000;-77.01675
 756.63;  -42.025;    9.992;    0.000;-52.01667
 757.20;   -2.024; -110.008;    0.000;107.98341
 757.78;   -2.024; -109.008;    0.000;106.98349
 758.35;  -30.024;  -21.008;    0.000;-9.01643
 758.92;  -29.024;  -49.008;    0.000;19.98365
 759.50;  -13.024; -123.008;    0.000;109.98373
 760.07;  -19.024;  -28.008;    0.000; 8.98381
 760.64;  -67.024; -114.008;    0.000;46.98390
 761.21;   -3.024;  -26.008;    0.000;22.98398
 761.79;  -41.023; -150.008;    0.000;108.98406
 762.36;  -27.023;    4.993;    0.000;-32.01586
 762.93;   -4.023;  -64.007;    0.000;59.98422
 763.50;   -2.023;  -56.007;    0.000;53.98430
 764.08;  -10.023;  -75.007;    0.000;64.98438
 764.65;   30.977;  -52.007;    0.000;82.98446
 765.22;   69.977;  -49.007;    0.000;118.98454
 765.79;   -8.023;  -47.007;    0.000;38.98462
 766.37;   -1.022;  -10.007;    0.000; 8.98471
 766.94;  -33.022;  -49.007;    0.000;15.98479
 767.51;  -31.022;  -86.007;    0.000;54.98487
 768.08;  -29.022;  -18.007;    0.000;-11.01505
 768.66;   -4.022;   -5.007;    0.000; 0.98503
 769.23;   -3.022;  -48.007;    0.000;44.98511
 769.80;  -27.022;  -98.007;    0.000;70.98519
 770.37;  -42.022;  -98.007;    0.000;55.98527
 770.94;    2.978;  -57.007;    0.000;59.98535
 771.52;  -18.021;  -80.007;    0.000;61.98543
 772.09;  -34.021;  -34.007;    0.000;-0.01449
 772.66;  -44.021;   -4.007;    0.000;-40.01440
 773.23;  -63.021;   20.993;    0.000;-84.01432
 773.80;  -35.021;  -48.007;    0.000;12.98576
 774.38;  -43.021;  -92.007;    0.000;48.98584
 774.95;   -9.021;    1.993;    0.000;-11.01408
 775.52;  -18.021;    7.993;    0.000;-26.01400
 776.09;  -46.020;  -93.007;    0.000;46.98608
 776.66;  -20.020;  -88.007;    0.000;67.98616
 777.24;  -24.020;  -43.006;    0.000;18.98624
 777.81;  -37.020;   36.994;    0.000;-74.01368
 778.38;   -7.020;  -57.006;    0.000;49.98640
 778.95;    2.980;  -60.006;    0.000;62.98649
 779.52;  -50.020;  -45.006;    0.000;-5.01343
 780.09;   13.980;  102.994;    0.000;-89.01335
 780.66;  -61.020;  -35.006;    0.000;-26.01327
 781.24;   -8.019;   15.994;    0.000;-24.01319
 781.81;  -33.019;  -81.006;    0.000;47.98689
 782.38;  -11.019;  -82.006;    0.000;70.98697
 782.95;  -27.019; -106.006;    0.000;78.98705
 783.52;  -19.019;  -51.006;    0.000;31.98713
 784.09;  -32.019;  -73.006;    0.000;40.98721
 784.66;  -57.019;  -42.006;    0.000;-15.01271
 785.23;  -16.019; -108.006;    0.000;91.98738
 785.80;   -8.018;  -93.006;    0.000;84.98746
 786.38;  -52.018;   10.994;    0.000;-63.01246
 786.95;    5.982;  -46.006;    0.000;51.98762
 787.52;  -19.018;  -24.006;    0.000; 4.98770
 788.09;  -32.018;  -78.006;    0.000;45.98778
 788.66;  -24.018; -134.006;    0.000;109.98786
 789.23;   15.982;   47.994;    0.000;-32.01206
 789.80;  -23.018;  -64.006;    0.000;40.98802
 790.37;   -2.017;  -54.006;    0.000;51.98810
 790.94;   -2.017;   45.994;    0.000;-48.01182
 791.51;  -52.017; -123.006;    0.000;70.98827
 792.08;  -50.017; -103.005;    0.000;52.98835
 792.65;  -52.017;  -40.005;    0.000;-12.01157
 793.22;  -37.017;   31.995;    0.000;-69.01149
 793.80;  -43.017;  -37.005;    0.000;-6.01141
 794.37;   17.983;  -41.005;    0.000;58.98867
 794.94;   -3.017;   42.995;    0.000;-46.01125
 795.51;  -34.016;  -49.005;    0.000;14.98883
 796.08;  -15.016;  -38.005;    0.000;22.98891
 796.65;  -50.016;  -72.005;    0.000;21.98899
 797.22;   -7.016;  -86.005;    0.000;78.98908
 797.79;  -34.016;   73.995;    0.000;-108.01084
 798.36;   14.984;  -76.005;    0.000;90.98924
 798.93;  -36.016;  -92.005;    0.000;55.98932
 799.50;   12.984;  -48.005;    0.000;60.98940
 800.07;  -38.015;  -76.005;    0.000;37.98948
 800.64;   -5.015;  -91.005;    0.000;85.98956
 801.21;  -35.015;  -67.005;    0.000;31.98964
 801.78;   -6.015;  -58.005;    0.000;51.98972
 802.35;  -18.015;  -61.005;    0.000;42.98980
 802.92;  -47.015;  -74.005;    0.000;26.98988
 803.49;    8.985;  -41.005;    0.000;49.98997
 804.06;  -38.015;  -93.005;    0.000;54.99005
 804.63;  -77.015; -110.005;    0.000;32.99013
 805.20;  -43.014;  -20.005;    0.000;-23.00979
 805.77;  -16.014;  -74.005;    0.000;57.99029
 806.34;  -36.014;  -54.005;    0.000;17.99037
 806.91;  -63.014;  -34.004;    0.000;-29.00955
 807.47;  -15.014; -119.004;    0.000;103.99053
 808.04;  -80.014;  -73.004;    0.000;-7.00939
 808.61;   11.986;  -39.004;    0.000;50.99069
 809.18;  -68.014;    7.996;    0.000;-76.00923
 809.75;   47.987;  -67.004;    0.000;114.99086
 810.32;  -12.013;  -87.004;    0.000;74.99094
 810.89;  -10.013;  -66.004;    0.000;55.99102
 811.46;  -90.013;  -37.004;    0.000;-53.00890
 812.03;  -16.013; -132.004;    0.000;115.99118
 812.60;  -74.013; -119.004;    0.000;44.99126
 813.17;   15.987;  -13.004;    0.000;28.99134
 813.74;   -1.013;   43.996;    0.000;-45.00858
 814.31;  -41.012;  -32.004;    0.000;-9.00850
 814.87;  -10.012;    0.996;    0.000;-11.00842
 815.44;  -17.012;  -65.004;    0.000;47.99166
 816.01;  -28.012;   43.996;    0.000;-72.00825
 816.58;   -5.012;  -88.004;    0.000;82.99183
 817.15;  -87.012;   52.996;    0.000;-140.00809
 817.72;  -25.012;  -61.004;    0.000;35.99199
 818.29;  -39.012;  -34.004;    0.000;-5.00793
 818.86;  -12.012;   25.996;    0.000;-38.00785
 819.42;  -33.011;  -45.004;    0.000;11.99223
 819.99;  -54.011;  -39.004;    0.000;-15.00769
 820.56;  -33.011;  -80.004;    0.000;46.99239
 821.13;  -14.011;  -31.004;    0.000;16.99247
 821.70;    9.989; -110.004;    0.000;119.99255
 822.27;   26.989;  -10.003;    0.000;36.99264
 822.84;  -93.011;  -45.003;    0.000;-48.00728
 823.40;    0.989;  -96.003;    0.000;96.99280
 823.97;  -31.010;    4.997;    0.000;-36.00712
 824.54;  -45.010;  -95.003;    0.000;49.99296
 825.11;  -21.010;  -94.003;    0.000;72.99304
 825.68;  -59.010;   91.997;    0.000;-151.00688
 826.24;   -8.010;  -83.003;    0.000;74.99320
 826.81;  -14.010;  -71.003;    0.000;56.99328
 827.38;  -51.010;  -87.003;    0.000;35.99336
 827.95;  -41.010;  -75.003;    0.000;33.99345
 828.52;    3.990;  -79.003;    0.000;82.99353
 829.08;  -30.009;  -31.003;    0.000; 0.99361
 829.65;  -71.009;  -51.003;    0.000;-20.00631
 830.22;  -24.009;  -55.003;    0.000;30.99377
 830.79;  -63.009;  -57.003;    0.000;-6.00615
 831.36;    1.991;  -25.003;    0.000;26.99393
 831.92;   22.991;   34.997;    0.000;-12.00599
 832.49;  -52.009; -131.003;    0.000;78.99409
 833.06;  -12.009;  -33.003;    0.000;20.99417
 833.63;   13.992;  -54.003;    0.000;67.99425
 834.19;  -13.008;  -60.003;    0.000;46.99434
 834.76;  -21.008;  -32.003;    0.000;10.99442
 835.33;  -46.008;  -71.003;    0.000;24.99450
 835.90;  -64.008; -124.003;    0.000;59.99458
 836.46;  -59.008;  -58.003;    0.000;-1.00534
 837.03;  -13.008;  -54.002;    0.000;40.99474
 837.60;  -43.008;  -21.002;    0.000;-22.00518
 838.17;    2.993;   32.998;    0.000;-30.00510
 838.73;  -48.007;  -33.002;    0.000;-15.00502
 839.30;  -26.007;   12.998;    0.000;-39.00494
 839.87;  -57.007;   -0.002;    0.000;-57.00486
 840.43;   19.993;  -16.002;    0.000;35.99523
 841.00;  -27.007;    2.998;    0.000;-30.00469
 841.57;  -48.007;  -32.002;    0.000;-16.00461
 842.14;  -35.007;  -81.002;    0.000;45.99547
 842.70;  -21.007;   11.998;    0.000;-33.00445
 843.27;  -16.006;    8.998;    0.000;-25.00437
 843.84;   15.994; -102.002;    0.000;117.99571
 844.40;  -20.006;  -75.002;    0.000;54.99579
 844.97;    9.994;  -46.002;    0.000;55.99587
 845.54;  -27.006;  -85.002;    0.000;57.99595
 846.10;  -10.006;  -35.002;    0.000;24.99603
 846.67;  -12.006;  -94.002;    0.000;81.99612
 847.24;   23.994; -113.002;    0.000;136.99620
 847.80;    2.995;  -66.002;    0.000;68.99628
 848.37;   -4.005;   -2.002;    0.000;-2.00364
 848.94;  -83.005;   38.998;    0.000;-122.00356
 849.50;  -34.005;   46.998;    0.000;-81.00348
 850.07;    5.995; -122.002;    0.000;127.99660
 850.63;   -3.005;   -7.002;    0.000; 3.99668
 851.20;  -28.005; -184.002;    0.000;155.99676
 851.77;  -36.005; -114.001;    0.000;77.99684
 852.33;   -9.005;   17.999;    0.000;-27.00308
 852.90;  -21.004;  -65.001;    0.000;43.99701
 853.47;  -56.004;  -23.001;    0.000;-33.00291
 854.03;   -4.004;  -70.001;    0.000;65.99717
 854.60;   17.996;    5.999;    0.000;11.99725
 855.16;  -79.004;   34.999;    0.000;-114.00267
 855.73;  -69.004;   23.999;    0.000;-93.00259
 856.30;    1.996;   12.999;    0.000;-11.00251
 856.86;    3.996;  -52.001;    0.000;55.99757
 857.43;    4.997;   38.999;    0.000;-34.00235
 857.99;  -34.003;  -68.001;    0.000;33.99773
 858.56;   32.997; -104.001;    0.000;136.99782
 859.12;   -3.003;  -87.001;    0.000;83.99790
 859.69;  -10.003;  -60.001;    0.000;49.99798
 860.26;  -46.003; -104.001;    0.000;57.99806
 860.82;  -29.003;  -54.001;    0.000;24.99814
 861.39;  -50.003;   18.999;    0.000;-69.00178
 861.95;  -26.002;  -37.001;    0.000;10.99830
 862.52;  -19.002;    4.999;    0.000;-24.00162
 863.08;  -33.002;  -78.001;    0.000;44.99846
 863.65;  -23.002;  -32.001;    0.000; 8.99854
 864.21;  -51.002;  -78.001;    0.000;26.99862
 864.78;  -23.002;    7.999;    0.000;-31.00129
 865.34;  -20.002;  176.999;    0.000;-197.00121
 865.91;   -9.002;  -26.001;    0.000;16.99887
 866.47;  -16.002; -106.000;    0.000;89.99895
 867.04;  -82.001;  -30.000;    0.000;-52.00097
 867.61;  -14.001;  -90.000;    0.000;75.99911
 868.17;  -12.001;  -33.000;    0.000;20.99919
 868.74;  -21.001;  -71.000;    0.000;49.99927
 869.30;  -34.001;  -84.000;    0.000;49.99935
 869.86;  -15.001;  -31.000;    0.000;15.99943
 870.43;   -9.001; -162.000;    0.000;152.99951
 870.99;  -26.001; -146.000;    0.000;119.99960
 871.56;  -29.000;   -7.000;    0.000;-22.00032
 872.12;  -81.000; -126.000;    0.000;44.99976
 872.69;  -28.000;  -87.000;    0.000;58.99984
 873.25;  -39.000;  -61.000;    0.000;21.99992
 873.82;  -13.000;  -70.000;    0.000;57.00000
 874.38;  -17.000;    5.000;    0.000;-22.00000
 874.95;  -59.000;  -30.000;    0.000;-29.00000
 875.51;  -14.000;  -47.000;    0.000;33.00000
 876.08;  -48.000; -104.000;    0.000;56.00000
 876.64;   19.000;  -93.000;    0.000;112.00000
 877.20;  -31.000;  -73.000;    0.000;42.00000
 877.77;  -26.000;  -61.000;    0.000;35.00000
 878.33;  -35.000; -115.000;    0.000;80.00000
 878.90;  -38.000;    0.000;    0.000;-38.00000
 879.46;  -47.000;  -96.000;    0.000;49.00000
 880.03;  -22.000;   -6.000;    0.000;-16.00000
 880.59;  -33.000;  -52.000;    0.000;19.00000
 881.15;    2.000;   -3.000;    0.000; 5.00000
 881.72;  -85.000;  -85.000;    0.000; 0.00000
 882.28;  -22.000;  -38.000;    0.000;16.00000
 882.85;  -25.000;  -80.000;    0.000;55.00000
 883.41;  -13.000;   -8.000;    0.000;-5.00000
 883.97;  -55.000;  259.000;    0.000;-314.00000
 884.54;   11.000;  -62.000;    0.000;73.00000
 885.10;  -31.000;  -98.000;    0.000;67.00000
 885.66;   -3.000;   30.000;    0.000;-33.00000
 886.23;  -69.000;  -75.000;    0.000; 6.00000
 886.79;    8.000;  -44.000;    0.000;52.00000
 887.36;  -69.000;  -62.000;    0.000;-7.00000
 887.92;   -6.000; -115.000;    0.000;109.00000
 888.48;  -76.000; -126.000;    0.000;50.00000
 889.05;  -35.000; -109.000;    0.000;74.00000
 889.61;  -20.000;  -71.000;    0.000;51.00000
 890.17;   17.000; -119.000;    0.000;136.00000
 890.74;   -3.000;  -51.000;    0.000;48.00000
 891.30;  -12.000;  -49.000;    0.000;37.00000
 891.86;  -28.000; -100.000;    0.000;72.00000
 892.43;  -28.000; -113.000;    0.000;85.00000
 892.99;  -62.000;  -47.000;    0.000;-15.00000
 893.55;  -40.000; -133.000;    0.000;93.00000
 894.11;   46.000;  -44.000;    0.000;90.00000
 894.68;  -46.000;    8.000;    0.000;-54.00000
 895.24;  -14.000;   90.000;    0.000;-104.00000
 895.80;   15.000;  -69.000;    0.000;84.00000
 896.37;  -48.000;  -60.000;    0.000;12.00000
 896.93;  -81.000;   24.000;    0.000;-105.00000
 897.49;  -35.000;  -65.000;    0.000;30.00000
 898.05;  -33.000;  -15.000;    0.000;-18.00000
 898.62;  -37.000;   34.000;    0.000;-71.00000
 899.18;  -10.000;  -72.000;    0.000;62.00000
 899.74;   -7.000;  105.000;    0.000;-112.00000
 900.31;   -2.000;  -72.000;    0.000;70.00000
 900.87;  -45.000; -117.000;    0.000;72.00000
 901.43;   13.000; -125.000;    0.000;138.00000
 901.99;  -23.000;  -29.000;    0.000; 6.00000
 902.56;  -42.000;   -7.000;    0.000;-35.00000
 903.12;  -41.000;  173.000;    0.000;-214.00000
 903.68;  -21.000;  -10.000;    0.000;-11.00000
 904.24;  -58.000;  -54.000;    0.000;-4.00000
 904.80;  -46.000;  -42.000;    0.000;-4.00000
 905.37;  -43.000; -103.000;    0.000;60.00000
 905.93;   11.000;  -27.000;    0.000;38.00000
 906.49;  -35.000;    0.000;    0.000;-35.00000
 907.05;   23.000;  -71.000;    0.000;94.00000
 907.61;  -55.000;  -66.000;    0.000;11.00000
 908.18;   34.000;   49.000;    0.000;-15.00000
 908.74;  -31.000;  -79.000;    0.000;48.00000
 909.30;   -6.000;  -76.000;    0.000;70.00000
 909.86;  -31.000;  -29.000;    0.000;-2.00000
 910.42;  -28.000;  -41.000;    0.000;13.00000
 910.99;    3.000;  -25.000;    0.000;28.00000
 911.55;  -32.000;  -97.000;    0.000;65.00000
 912.11;  -19.000;  -37.000;    0.000;18.00000
 912.67;   -6.000;  -20.000;    0.000;14.00000
 913.23;  -62.000;  -78.000;    0.000;16.00000
 913.79;  -33.000;  -26.000;    0.000;-7.00000
 914.36;  -24.000;  -94.000;    0.000;70.00000
 914.92;    6.000;   10.000;    0.000;-4.00000
 915.48;   37.000;  -55.000;    0.000;92.00000
 916.04;  -43.000;   85.000;    0.000;-128.00000
 916.60;    3.000;  -64.000;    0.000;67.00000
 917.16;   -2.000; -173.000;    0.000;171.00000
 917.72;  -55.000;  -66.000;    0.000;11.00000
 918.28;  -10.000;  -99.000;    0.000;89.00000
 918.85;   24.000;  -41.000;    0.000;65.00000
 919.41;   -3.000;  -44.000;    0.000;41.00000
 919.97;  -75.000; -160.000;    0.000;85.00000
 920.53;  -12.000;  -17.000;    0.000; 5.00000
 921.09;  -75.000;   -1.000;    0.000;-74.00000
 921.65;    8.000;  -52.000;    0.000;60.00000
 922.21;  -96.000; -103.000;    0.000; 7.00000
 922.77;  -50.000;  -82.000;    0.000;32.00000
 923.33;  -42.000;  -38.000;    0.000;-4.00000
 923.89;  -58.000;  -72.000;    0.000;14.00000
 924.45;   30.000;  -65.000;    0.000;95.00000
 925.01;  -34.000;  -45.000;    0.000;11.00000
 925.58;  -39.000;  -94.000;    0.000;55.00000
 926.14;   -3.000;  -79.000;    0.000;76.00000
 926.70;  -43.000;  -93.000;    0.000;50.00000
 927.26;   -1.000;   18.000;    0.000;-19.00000
 927.82;  -51.000;  -50.000;    0.000;-1.00000
 928.38;  -42.000;  -83.000;    0.000;41.00000
 928.94;  -10.000;  -89.000;    0.000;79.00000
 929.50;   28.000;  -18.000;    0.000;46.00000
 930.06;  -29.000; -128.000;    0.000;99.00000
 930.62;    6.000; -109.000;    0.000;115.00000
 931.18;  -31.000;  -17.000;    0.000;-14.00000
 931.74;  -13.000;  -92.000;    0.000;79.00000
 932.30;   24.000;  -18.000;    0.000;42.00000
 932.86;  -41.000;  -88.000;    0.000;47.00000
 933.42;  -13.000;    2.000;    0.000;-15.00000
 933.98;   34.000;    6.000;    0.000;28.00000
 934.54;   23.000;  -35.000;    0.000;58.00000
 935.10;  -28.000;  -75.000;    0.000;47.00000
 935.66;  -19.000;  -85.000;    0.000;66.00000
 936.22;  -15.000;  -47.000;    0.000;32.00000
 936.78;  -29.000; -124.000;    0.000;95.00000
 937.34;   -1.000;  -21.000;    0.000;20.00000
 937.90;  -16.000;  -85.000;    0.000;69.00000
 938.46;  -12.000; -102.000;    0.000;90.00000
 939.02;  -68.000;  -93.000;    0.000;25.00000
 939.58;  -27.000; -134.000;    0.000;107.00000
 940.14;  -25.000;  -80.000;    0.000;55.00000
 940.70;  -16.000;   98.000;    0.000;-114.00000
 941.25;  -74.000;  -36.000;    0.000;-38.00000
 941.81;  -54.000; -118.000;    0.000;64.00000
 942.37;  -22.000;   18.000;    0.000;-40.00000
 942.93;  -85.000; -100.000;    0.000;15.00000
 943.49;  -34.000;  -44.000;    0.000;10.00000
 944.05;    3.000;  -50.000;    0.000;53.00000
 944.61;  -43.000;  -26.000;    0.000;-17.00000
 945.17;   13.000;  -33.000;    0.000;46.00000
 945.73;   -9.000;  -81.000;    0.000;72.00000
 946.29;  -43.000;  -34.000;    0.000;-9.00000
 946.85;  -13.000; -100.000;    0.000;87.00000
 947.40;  -12.000; -119.000;    0.000;107.00000
 947.96;  -64.000;  -64.000;    0.000; 0.00000
 948.52;  -47.000;  -72.000;    0.000;25.00000
 949.08;  -40.000;  -38.000;    0.000;-2.00000
 949.64;  -23.000;   24.000;    0.000;-47.00000
 950.20;  -22.000;  -83.000;    0.000;61.00000
 950.76;  -32.000;  -72.000;    0.000;40.00000
 951.32;  -16.000;  -53.000;    0.000;37.00000
 951.87;  -30.000;  -19.000;    0.000;-11.00000
 952.43;  -24.000;   11.000;    0.000;-35.00000
 952.99;    7.000;   -7.000;    0.000;14.00000
 953.55;   -4.000;  -85.000;    0.000;81.00000
 954.11;    2.000; -112.000;    0.000;114.00000
 954.67;   -3.000;  -63.000;    0.000;60.00000
 955.22;   -6.000;  -70.000;    0.000;64.00000
 955.78;    3.000;   79.000;    0.000;-76.00000
 956.34;   10.000;  -22.000;    0.000;32.00000
 956.90;  -15.000;  -85.000;    0.000;70.00000
 957.46;   52.000;  -55.000;    0.000;107.00000
 958.01;  -33.000;    4.000;    0.000;-37.00000
 958.57;  -41.000;  -10.000;    0.000;-31.00000
 959.13;  -43.000;  -48.000;    0.000; 5.00000
 959.69;  -16.000;  -86.000;    0.000;70.00000
 960.25;   -6.000;  -41.000;    0.000;35.00000
 960.80;  -19.000;  -22.000;    0.000; 3.00000
 961.36;  -41.000;  -36.000;    0.000;-5.00000
 961.92;  -38.000; -138.000;    0.000;100.00000
 962.48;    8.000;  -84.000;    0.000;92.00000
 963.03;   -9.000;  -48.000;    0.000;39.00000
 963.59;  -18.000;    6.000;    0.000;-24.00000
 964.15;  -13.000;  -28.000;    0.000;15.00000
 964.71;  -69.000;  -42.000;    0.000;-27.00000
 965.26;    0.000;  -54.000;    0.000;54.00000
 965.82;  -51.000;  -19.000;    0.000;-32.00000
 966.38;  -15.000;  -65.000;    0.000;50.00000
 966.94;  -23.000; -117.000;    0.000;94.00000
 967.49;  -15.000; -107.000;    0.000;92.00000
 968.05;  -26.000;  -94.000;    0.000;68.00000
 968.61;    4.000;   43.000;    0.000;-39.00000
 969.17;  -12.000;  -84.000;    0.000;72.00000
 969.72;  -48.000; -122.000;    0.000;74.00000
 970.28;  -30.000;   11.000;    0.000;-41.00000
 970.84;  -47.000;  -71.000;    0.000;24.00000
 971.39;  -34.000;   14.000;    0.000;-48.00000
 971.95;  -32.000; -104.000;    0.000;72.00000
 972.51;  -58.000; -112.000;    0.000;54.00000
 973.06;  -73.000;  -20.000;    0.000;-53.00000
 973.62;   -8.000;  -33.000;    0.000;25.00000
 974.18;  -69.000;  -51.000;    0.000;-18.00000
 974.73;  -50.000; -117.000;    0.000;67.00000
 975.29;   -5.000;   46.000;    0.000;-51.00000
 975.85;   11.000;   33.000;    0.000;-22.00000
 976.40;   -4.000;   26.000;    0.000;-30.00000
 976.96;  -41.000;  -93.000;    0.000;52.00000
 977.52;  -43.000;   22.000;    0.000;-65.00000
 978.07;   21.000;  -92.000;    0.000;113.00000
 978.63;    5.000;  -61.000;    0.000;66.00000
 979.19;  -42.000;  -96.000;    0.000;54.00000
 979.74;   -5.000;   16.000;    0.000;-21.00000
 980.30;  -60.000; -142.000;    0.000;82.00000
 980.85;   -2.000;    0.000;    0.000;-2.00000
 981.41;   -2.000;  -86.000;    0.000;84.00000
 981.97;  -35.000; -102.000;    0.000;67.00000
 982.52;  -55.000; -113.000;    0.000;58.00000
 983.08;  -14.000; -109.000;    0.000;95.00000
 983.63;    1.000;  -71.000;    0.000;72.00000
 984.19;  -27.000;  -33.000;    0.000; 6.00000
 984.75;  -40.000; -102.000;    0.000;62.00000
 985.30;  -14.000; -108.000;    0.000;94.00000
 985.86;  -37.000;  -66.000;    0.000;29.00000
 986.41;  -86.000;  -77.000;    0.000;-9.00000
 986.97;  -54.000;  -90.000;    0.000;36.00000
 987.52;  -52.000; -103.000;    0.000;51.00000
 988.08;  -53.000; -121.000;    0.000;68.00000
 988.64;  -31.000;  -87.000;    0.000;56.00000
 989.19;  -33.000; -112.000;    0.000;79.00000
 989.75;  -39.000;    7.000;    0.000;-46.00000
 990.30;    6.000; -125.000;    0.000;131.00000
 990.86;   25.000;  -60.000;    0.000;85.00000
 991.41;   -4.000;  -89.000;    0.000;85.00000
 991.97;   -7.000;  -22.000;    0.000;15.00000
 992.52;  -22.000; -114.000;    0.000;92.00000
 993.08;  -85.000; -114.000;    0.000;29.00000
 993.63;  -82.000;  -53.000;    0.000;-29.00000
 994.19;    6.000;  -18.000;    0.000;24.00000
 994.74;   -8.000; -126.000;    0.000;118.00000
 995.30;  -45.000; -125.000;    0.000;80.00000
 995.85;  -93.000;  -86.000;    0.000;-7.00000
 996.41;  -49.000;  -72.000;    0.000;23.00000
 996.96;  -27.000;   -2.000;    0.000;-25.00000
 997.52;   -8.000;   45.000;    0.000;-53.00000
 998.07;  -63.000;   -6.000;    0.000;-57.00000
 998.63;  -23.000;  -97.000;    0.000;74.00000
 999.18;   -5.000;  103.000;    0.000;-108.00000
 999.74;   20.000;  -43.000;    0.000;63.00000
1000.29;   -6.000;  -49.000;    0.000;43.00000
1000.85;  -56.000;  -39.000;    0.000;-17.00000
1001.40;  -44.000;  -30.000;    0.000;-14.00000
1001.96;  -31.000;  -96.000;    0.000;65.00000
1002.51;  -36.000; -103.000;    0.000;67.00000
1003.06;  -71.000;  -94.000;    0.000;23.00000
1003.62;  -42.000;   -1.000;    0.000;-41.00000
1004.17;   -8.000; -111.000;    0.000;103.00000
1004.73;  -64.000;  -93.000;    0.000;29.00000
1005.28;  -40.000;   77.000;    0.000;-117.00000
1005.83;  -28.000;  -80.000;    0.000;52.00000
1006.39;  -57.000; -146.000;    0.000;89.00000
1006.94;  -12.000; -103.000;    0.000;91.00000
1007.50;  -34.000;   28.000;    0.000;-62.00000
1008.05;  -42.000;  -47.000;    0.000; 5.00000
1008.60;  -52.000;  -88.000;    0.000;36.00000
1009.16;  -43.000;  -50.000;    0.000; 7.00000
1009.71;  -20.000;   21.000;    0.000;-41.00000
1010.27;   21.000;  -89.000;    0.000;110.00000
1010.82;  -57.000;  -97.000;    0.000;40.00000
1011.37;    0.000;  -11.000;    0.000;11.00000
1011.93;    6.000;   13.000;    0.000;-7.00000
1012.48;   48.000;  -61.000;    0.000;109.00000
1013.03;  -48.000;  -74.000;    0.000;26.00000
1013.59;  -53.000;  -16.000;    0.000;-37.00000
1014.14;  -12.000;  -69.000;    0.000;57.00000
1014.69;  -53.000; -129.000;    0.000;76.00000
1015.25;  -30.000;   66.000;    0.000;-96.00000
1015.80;  -48.000;  -14.000;    0.000;-34.00000
1016.35;   -1.000; -124.000;    0.000;123.00000
1016.91;  -38.000; -140.000;    0.000;102.00000
1017.46;   33.000; -122.000;    0.000;155.00000
1018.01;  -33.000;  -42.000;    0.000; 9.00000
1018.57;   -8.000; -115.000;    0.000;107.00000
1019.12;  -53.000; -101.000;    0.000;48.00000
1019.67;  -23.000;   10.000;    0.000;-33.00000
1020.23;  -26.000;  -22.000;    0.000;-4.00000
1020.78;  -21.000; -187.000;    0.000;166.00000
1021.33;    4.000;  -89.000;    0.000;93.00000
1021.88;  -19.000;    4.000;    0.000;-23.00000
1022.44;  -38.000;   10.000;    0.000;-48.00000
1022.99;   -7.000;   -5.000;    0.000;-2.00000
1023.54;  -77.000;  -85.000;    0.000; 8.00000
1024.09;  -16.000;   38.000;    0.000;-54.00000
1024.65;  -76.000;  -53.000;    0.000;-23.00000
1025.20;   -9.000; -105.000;    0.000;96.00000
1025.75;  -54.000;  -42.000;    0.000;-12.00000
1026.30;  -41.000;  -44.000;    0.000; 3.00000
1026.86;  -36.000; -104.000;    0.000;68.00000
1027.41;  -38.000;  -48.000;    0.000;10.00000
1027.96;  -45.000;  -34.000;    0.000;-11.00000
1028.51;  -21.000;   87.000;    0.000;-108.00000
1029.07;  -45.000;  -93.000;    0.000;48.00000
1029.62;  -62.000;  -70.000;    0.000; 8.00000
1030.17;  -77.000;  -53.000;    0.000;-24.00000
1030.72;  -27.000;  -29.000;    0.000; 2.00000
1031.27;  -23.000;  -72.000;    0.000;49.00000
1031.83;  -55.000;  -58.000;    0.000; 3.00000
1032.38;  -19.000;   24.000;    0.000;-43.00000
1032.93;  -65.000;  -82.000;    0.000;17.00000
1033.48;  -38.000;  -48.000;    0.000;10.00000
1034.03;  -16.000; -100.000;    0.000;84.00000
1034.58;    6.000;  -24.000;    0.000;30.00000
1035.14;   -6.000; -128.000;    0.000;122.00000
1035.69;  -27.000; -126.000;    0.000;99.00000
1036.24;  -35.000;  -66.000;    0.000;31.00000
1036.79;  -10.000;  -77.000;    0.000;67.00000
1037.34;   -1.000; -100.000;    0.000;99.00000
1037.89;  -19.000;  -99.000;    0.000;80.00000
1038.45;   -8.000; -113.000;    0.000;105.00000
1039.00;   -4.000; -132.000;    0.000;128.00000
1039.55;   15.000; -104.000;    0.000;119.00000
1040.10;  -45.000;  -57.000;    0.000;12.00000
1040.65;  -20.000;  -95.000;    0.000;75.00000
1041.20;  -22.000; -102.000;    0.000;80.00000
1041.75;  -14.000;  -74.000;    0.000;60.00000
1042.30;  -61.000;  -93.000;    0.000;32.00000
1042.85;  -11.000;  -56.000;    0.000;45.00000
1043.41;  -20.000;  -25.000;    0.000; 5.00000
1043.96;  -51.000; -123.000;    0.000;72.00000
1044.51;   -9.000;  -64.000;    0.000;55.00000
1045.06;   -3.000;   16.000;    0.000;-19.00000
1045.61;  -64.000; -109.000;    0.000;45.00000
1046.16;  -14.000;    6.000;    0.000;-20.00000
1046.71;  -42.000;  -61.000;    0.000;19.00000
1047.26;  -33.000;  -70.000;    0.000;37.00000
1047.81;  -42.000; -145.000;    0.000;103.00000
1048.36;  -48.000; -112.000;    0.000;64.00000
1048.91;  -49.000;  834.000;    0.000;-883.00000
1049.46;  -15.000;   60.000;    0.000;-75.00000
1050.01;  -69.000;  -50.000;    0.000;-19.00000
1050.56;    9.000;  -80.000;    0.000;89.00000
1051.11;  -64.000;    5.000;    0.000;-69.00000
1051.66;   -3.000;  -71.000;    0.000;68.00000
1052.21;  -40.000;  -57.000;    0.000;17.00000
1052.76;  -37.000;  -13.000;    0.000;-24.00000
1053.31;   14.000;  -89.000;    0.000;103.00000
1053.86;  -22.000;  -51.000;    0.000;29.00000
1054.41;    0.000;  -71.000;    0.000;71.00000
1054.96;  -72.000;  -52.000;    0.000;-20.00000
1055.51;  -67.000;  156.000;    0.000;-223.00000
1056.06;   -3.000; -122.000;    0.000;119.00000
1056.61;    1.000;   17.000;    0.000;-16.00000
1057.16;  -22.000; -101.000;    0.000;79.00000
1057.71;  -38.000;  -79.000;    0.000;41.00000
1058.26;   -2.000; -128.000;    0.000;126.00000
1058.81;  -32.000;  -50.000;    0.000;18.00000
1059.36;  -36.000;  -99.000;    0.000;63.00000
1059.91;  -45.000;  -12.000;    0.000;-33.00000
1060.46;  -51.000;   -9.000;    0.000;-42.00000
1061.01;  -37.000;  -39.000;    0.000; 2.00000
1061.56;    4.000; -101.000;    0.000;105.00000
1062.11;   -4.000;  -77.000;    0.000;73.00000
1062.66;  -19.000;  -80.000;    0.000;61.00000
1063.21;  -18.000; -132.000;    0.000;114.00000
1063.76;  -55.000;  -75.000;    0.000;20.00000
1064.31;  -62.000;  -42.000;    0.000;-20.00000
1064.86;   -8.000;  -86.000;    0.000;78.00000
1065.40;  -20.000;   29.000;    0.000;-49.00000
1065.95;  -43.000;  -38.000;    0.000;-5.00000
1066.50;  -52.000;  -91.000;    0.000;39.00000
1067.05;  -27.000;  -81.000;    0.000;54.00000
1067.60;   -4.000;  -70.000;    0.000;66.00000
1068.15;  -54.000;  -69.000;    0.000;15.00000
1068.70;  -70.000;  -92.000;    0.000;22.00000
1069.25;   24.000;  -55.000;    0.000;79.00000
1069.79;  -64.000;  -90.000;    0.000;26.00000
1070.34;  -24.000; -115.000;    0.000;91.00000
1070.89;  -51.000; -102.000;    0.000;51.00000
1071.44;  -31.000;  -64.000;    0.000;33.00000
1071.99;  -70.000;  153.000;    0.000;-223.00000
1072.54;  -42.000; -101.000;    0.000;59.00000
1073.09;   -8.000;  -97.000;    0.000;89.00000
1073.63;   28.000;  -27.000;    0.000;55.00000
1074.18;  -42.000;  -73.000;    0.000;31.00000
1074.73;   13.000;  -91.000;    0.000;104.00000
1075.28;  -67.000;   20.000;    0.000;-87.00000
1075.83;  -22.000;  -34.000;    0.000;12.00000
1076.38;  -12.000;  -93.000;    0.000;81.00000
1076.92;    9.000;  -76.000;    0.000;85.00000
1077.47;    6.000;  -37.000;    0.000;43.00000
1078.02;  -68.000;   34.000;    0.000;-102.00000
1078.57;  -61.000; -126.000;    0.000;65.00000
1079.11;   14.000; -118.000;    0.000;132.00000
1079.66;  -10.000; -151.000;    0.000;141.00000
1080.21;  -15.000;  -38.000;    0.000;23.00000
1080.76;  -20.000;  -56.000;    0.000;36.00000
1081.31;  -29.000;  -95.000;    0.000;66.00000
1081.85;    1.000;  -58.000;    0.000;59.00000
1082.40;  -39.000;  -25.000;    0.000;-14.00000
1082.95;  -26.000;  -56.000;    0.000;30.00000
1083.50;  -58.000;  -72.000;    0.000;14.00000
1084.04;   13.000;  -53.000;    0.000;66.00000
1084.59;  -96.000;  -57.000;    0.000;-39.00000
1085.14;   -2.000; -150.000;    0.000;148.00000
1085.69;  -27.000;  -64.000;    0.000;37.00000
1086.23;  -33.000;  -29.000;    0.000;-4.00000
1086.78;  -42.000;    6.000;    0.000;-48.00000
1087.33;   -2.000;   -2.000;    0.000; 0.00000
1087.87;   -9.000;  -71.000;    0.000;62.00000
1088.42;  -42.000;   17.000;    0.000;-59.00000
1088.97;  -29.000; -110.000;    0.000;81.00000
1089.52;  -57.000;  -48.000;    0.000;-9.00000
1090.06;  -37.000;  -91.000;    0.000;54.00000
1090.61;  -75.000; -101.000;    0.000;26.00000
1091.16;  -37.000;  -51.000;    0.000;14.00000
1091.70;    5.000;  -82.000;    0.000;87.00000
1092.25;  -51.000;  -46.000;    0.000;-5.00000
1092.80;  -27.000;  -45.000;    0.000;18.00000
1093.34;    6.000;  -64.000;    0.000;70.00000
1093.89;  -17.000;  -67.000;    0.000;50.00000
1094.44;  -30.000;  -15.000;    0.000;-15.00000
1094.98;  -50.000;   58.000;    0.000;-108.00000
1095.53;  -16.000;  -80.000;    0.000;64.00000
1096.07;  -45.000;  -25.000;    0.000;-20.00000
1096.62;  -23.000; -103.000;    0.000;80.00000
1097.17;   -1.000;   -5.000;    0.000; 4.00000
1097.71;  -37.000;  -69.000;    0.000;32.00000
1098.26;   12.000; -117.000;    0.000;129.00000
1098.81;  -73.000;  -42.000;    0.000;-31.00000
1099.35;  -80.000; -117.000;    0.000;37.00000
1099.90;   19.000;  -30.000;    0.000;49.00000
1100.44;  -69.000;  -82.000;    0.000;13.00000

