500-510_11mA_2.92V
Integration time [ms]: 500.000
Averaging Nr. [scans]: 1
Smoothing Nr. [pixels]: 0
Data measured with spectrometer [name]: 1701237U1
Wave   ;Sample   ;Dark     ;Reference;Scope Corrected for Dark
[nm]   ;[counts] ;[counts] ;[counts] ;[counts] 

 173.88;  -24.987;    2.997;    0.000;-27.98322
 174.48;  -99.991;   17.998;    0.000;-117.98907
 175.09;  -27.997;    3.999;    0.000;-31.99595
 175.69;  -26.992;    9.998;    0.000;-36.98939
 176.30;    6.014;  -19.003;    0.000;25.01741
 176.90;   11.005;  -17.001;    0.000;28.00601
 177.51;   -7.997;  -15.001;    0.000; 7.00366
 178.11;    8.010;   -0.002;    0.000; 8.01238
 178.72;   -0.994;   -5.001;    0.000; 4.00688
 179.32;  -42.989;    5.997;    0.000;-48.98565
 179.93;  -13.989;  -52.003;    0.000;38.01368
 180.54;  -27.997;   -2.001;    0.000;-25.99611
 181.14;  -11.986;  -10.003;    0.000;-1.98298
 181.75;   21.004;  -23.001;    0.000;44.00487
 182.35;    3.003;  -75.001;    0.000;78.00354
 182.96;   -4.994;   21.999;    0.000;-26.99253
 183.56;  -43.985;  -73.004;    0.000;29.01820
 184.17;   58.008;    2.998;    0.000;55.00998
 184.77;    5.003;  -15.001;    0.000;20.00373
 185.38;  -34.991;    5.998;    0.000;-40.98884
 185.98;   22.009;    0.998;    0.000;21.01171
 186.59;  -11.995;  -23.001;    0.000;11.00676
 187.19;    1.007;  -56.002;    0.000;57.00935
 187.80;   30.013;  -58.003;    0.000;88.01592
 188.40;    7.019;  -39.005;    0.000;46.02405
 189.01;   -0.991;  -44.002;    0.000;43.01167
 189.61;  -27.994;    4.998;    0.000;-32.99245
 190.21;  -19.987;   27.997;    0.000;-47.98396
 190.82;  -14.989;  -23.003;    0.000; 8.01423
 191.42;  -30.985;    3.996;    0.000;-34.98184
 192.03;  -83.985;  -56.004;    0.000;-27.98086
 192.63;   -1.983;   25.996;    0.000;-27.97846
 193.24;   44.004;   -2.001;    0.000;46.00535
 193.84;   26.021;   31.995;    0.000;-5.97414
 194.45;  -26.983;    5.996;    0.000;-32.97819
 195.05;   24.011;  -14.003;    0.000;38.01431
 195.66;  -14.984;   -3.004;    0.000;-11.97988
 196.26;  -43.979;  -21.005;    0.000;-22.97331
 196.87;  -10.981;   17.995;    0.000;-28.97650
 197.47;    4.015;   18.996;    0.000;-14.98090
 198.07;  -69.979;   -3.005;    0.000;-66.97406
 198.68;   30.022;   19.995;    0.000;10.02747
 199.28;   10.013;  -26.003;    0.000;36.01607
 199.89;  -43.973;  -15.007;    0.000;-28.96585
 200.49;  -43.979;  -12.005;    0.000;-31.97386
 201.10;    3.016;   65.996;    0.000;-62.97960
 201.70;  -14.978;   -8.006;    0.000;-6.97190
 202.31;  -64.990;  -13.002;    0.000;-51.98770
 202.91;   32.010;  -15.003;    0.000;47.01258
 203.51;  -37.983;   19.996;    0.000;-57.97917
 204.12;   -1.998;  -21.001;    0.000;19.00291
 204.72;    2.006;   39.999;    0.000;-37.99253
 205.33;  -17.990;  -22.002;    0.000; 4.01234
 205.93;  -49.988;  -18.003;    0.000;-31.98475
 206.53;  -46.986;  -44.003;    0.000;-2.98298
 207.14;  -34.987;  -21.003;    0.000;-13.98361
 207.74;  -10.988;  -38.003;    0.000;27.01556
 208.35;  -24.985;    6.996;    0.000;-31.98074
 208.95;  -38.987;    2.997;    0.000;-41.98385
 209.55;   72.013;   25.997;    0.000;46.01643
 210.16;   11.015;  -14.004;    0.000;25.01922
 210.76;  -43.985;   22.996;    0.000;-66.98184
 211.37;  -47.986;   -6.003;    0.000;-41.98263
 211.97;  -17.991;  -15.002;    0.000;-2.98872
 212.57;   20.020;   28.995;    0.000;-8.97461
 213.18;   -6.984;   16.996;    0.000;-23.97960
 213.78;  -71.982;    9.995;    0.000;-81.97709
 214.38;   22.013;  -73.003;    0.000;95.01596
 214.99;   -4.984;   -3.004;    0.000;-1.97960
 215.59;    8.019;   -0.005;    0.000; 8.02397
 216.20;  -72.979;   12.995;    0.000;-85.97367
 216.80;  -33.980;   22.995;    0.000;-56.97512
 217.40;   17.015;   11.996;    0.000; 5.01926
 218.01;  -38.978;   19.994;    0.000;-58.97202
 218.61;   30.018;   -8.005;    0.000;38.02252
 219.21;  -16.987;   19.997;    0.000;-36.98373
 219.82;   85.014;  -30.003;    0.000;115.01714
 220.42;  -75.986;   -2.004;    0.000;-73.98212
 221.02;  -30.974;    1.993;    0.000;-32.96703
 221.63;  -76.971;   19.993;    0.000;-96.96412
 222.23;  -51.981;  -52.005;    0.000; 0.02401
 222.83;   -3.986;  -33.004;    0.000;29.01800
 223.44;  -75.990;    4.998;    0.000;-80.98766
 224.04;  -31.971;  -15.007;    0.000;-16.96372
 224.64;  -81.978;   37.995;    0.000;-119.97300
 225.25;  -11.986;    7.996;    0.000;-19.98239
 225.85;  -61.989;  -46.003;    0.000;-15.98605
 226.45;  -57.981;   31.995;    0.000;-89.97591
 227.06;   44.016;  -33.004;    0.000;77.02016
 227.66;   13.013;  -17.003;    0.000;30.01682
 228.26;   -1.982;  -36.004;    0.000;34.02205
 228.87;  -32.982;  -15.004;    0.000;-17.97756
 229.47;    7.015;   45.996;    0.000;-38.98094
 230.07;  -47.981;  -17.005;    0.000;-30.97626
 230.68;    3.009;   21.998;    0.000;-18.98911
 231.28;  -88.980;   11.995;    0.000;-100.97461
 231.88;   50.018;  -33.005;    0.000;83.02291
 232.48;   -8.990;    6.997;    0.000;-15.98727
 233.09;  -31.988;   -4.003;    0.000;-27.98534
 233.69;  -22.985;  -11.004;    0.000;-11.98153
 234.29;    2.014;   31.996;    0.000;-29.98200
 234.90;   31.020;    0.995;    0.000;30.02488
 235.50;  -29.970;  -40.007;    0.000;10.03698
 236.10;  -47.986;  -14.003;    0.000;-33.98259
 236.70;  -12.981;   10.995;    0.000;-23.97634
 237.31;  -40.979;    1.995;    0.000;-42.97398
 237.91;  -83.980;  -23.005;    0.000;-60.97493
 238.51;  -56.988;    3.997;    0.000;-60.98514
 239.11;  -75.999;   27.000;    0.000;-102.99862
 239.72;  -44.977;   28.994;    0.000;-73.97162
 240.32;  -65.993;  -51.002;    0.000;-14.99112
 240.92;   16.019;  -18.005;    0.000;34.02378
 241.53;  -49.977;  -18.006;    0.000;-31.97174
 242.13;   16.017;  -61.004;    0.000;77.02099
 242.73;  -37.986;  -47.003;    0.000; 9.01714
 243.33;  -10.995;  -24.001;    0.000;13.00570
 243.93;  -35.980;  -61.005;    0.000;25.02519
 244.54;  -14.985;    4.996;    0.000;-19.98094
 245.14;  -39.983;  -28.004;    0.000;-11.97917
 245.74;  -18.981;  -42.005;    0.000;23.02433
 246.34;  -16.982;  -26.004;    0.000; 9.02248
 246.95;   32.021;  -21.005;    0.000;53.02629
 247.55;  -86.982;  -41.005;    0.000;-45.97732
 248.15;   40.025;   33.994;    0.000; 6.03176
 248.75;    7.013;  -27.003;    0.000;34.01627
 249.36;  -34.975;   12.994;    0.000;-47.96852
 249.96;  -71.988;    5.997;    0.000;-77.98554
 250.56;   10.018;   40.995;    0.000;-30.97732
 251.16;   10.014;  -47.003;    0.000;57.01745
 251.76;   37.017;   -2.004;    0.000;39.02169
 252.37;   -8.988;   18.997;    0.000;-27.98467
 252.97;  -11.983;    0.996;    0.000;-12.97917
 253.57;  -74.985;   -5.004;    0.000;-69.98094
 254.17;  -16.980;   23.995;    0.000;-40.97438
 254.77;    1.013;   14.997;    0.000;-13.98428
 255.38;  -14.979;    2.995;    0.000;-17.97422
 255.98;  -43.994;  -35.001;    0.000;-8.99308
 256.58;   20.013;    8.997;    0.000;11.01564
 257.18;  -85.984;  -12.004;    0.000;-73.97941
 257.78;    4.016;  -39.004;    0.000;43.01969
 258.38;  -78.985;   29.996;    0.000;-108.98074
 258.99;  -81.990;   -8.003;    0.000;-73.98695
 259.59;  -41.986;   22.996;    0.000;-64.98247
 260.19;  -32.981;   -0.005;    0.000;-32.97646
 260.79;    0.018;  -17.005;    0.000;17.02291
 261.39;   22.021;   14.995;    0.000; 7.02570
 261.99;  -54.978;  -14.005;    0.000;-40.97304
 262.60;  -30.980;    2.995;    0.000;-33.97453
 263.20;   10.010;  -58.002;    0.000;68.01207
 263.80;  -23.972;    0.993;    0.000;-24.96522
 264.40;  -48.982;  -28.004;    0.000;-20.97783
 265.00;   30.015;   50.996;    0.000;-20.98066
 265.60;  -48.986;  -82.003;    0.000;33.01737
 266.20;  -38.988;    0.997;    0.000;-39.98530
 266.81;  -59.986;  -49.004;    0.000;-10.98208
 267.41;  -30.980;  -14.005;    0.000;-16.97540
 268.01;  -36.989;  -10.003;    0.000;-26.98597
 268.61;  -86.980;    4.995;    0.000;-91.97457
 269.21;  -76.979;  -33.005;    0.000;-43.97355
 269.81;  -39.991;  -49.002;    0.000; 9.01171
 270.41;   -8.985;   14.996;    0.000;-23.98102
 271.01;    7.019;  -31.005;    0.000;38.02323
 271.62;  -32.990;  -13.003;    0.000;-19.98691
 272.22;  -28.988;  -57.003;    0.000;28.01509
 272.82;  -35.982;  -22.004;    0.000;-13.97799
 273.42;   27.017;   12.996;    0.000;14.02134
 274.02;  -63.986;  -11.004;    0.000;-52.98231
 274.62;  -40.977;  -27.006;    0.000;-13.97084
 275.22;  -81.988;  -24.003;    0.000;-57.98546
 275.82;  -45.980;   20.995;    0.000;-66.97496
 276.42;  -33.980;  -47.005;    0.000;13.02445
 277.02;  -91.989;   -0.003;    0.000;-91.98573
 277.63;  -49.981;   34.995;    0.000;-84.97685
 278.23;  -32.982;   65.995;    0.000;-98.97701
 278.83;  -50.979;  -65.005;    0.000;14.02578
 279.43;    3.020;  -26.005;    0.000;29.02492
 280.03;  -31.994;    3.998;    0.000;-35.99234
 280.63;  -36.983;   18.996;    0.000;-55.97870
 281.23;   66.016;  -33.004;    0.000;99.02052
 281.83;  -25.977;   -9.006;    0.000;-16.97135
 282.43; 1166.017;  130.996;    0.000;1035.02146
 283.03;  -17.985;   -2.004;    0.000;-15.98165
 283.63;   10.018;    5.995;    0.000; 4.02283
 284.23;   13.021;  -13.005;    0.000;26.02610
 284.83;  -34.979;  -32.005;    0.000;-2.97343
 285.43;   21.015;  -63.004;    0.000;84.01859
 286.03;  -40.991;  -25.002;    0.000;-15.98900
 286.63;  -58.982;  -41.005;    0.000;-17.97705
 287.23;   -0.985;  -14.004;    0.000;13.01890
 287.84;  -63.988;  -28.003;    0.000;-35.98451
 288.44;  -58.986;  -59.003;    0.000; 0.01714
 289.04;  -38.990;   -3.003;    0.000;-35.98715
 289.64;  -18.986;  -24.003;    0.000; 5.01694
 290.24;  -42.969;  -25.008;    0.000;-17.96152
 290.84;  -53.996;  -18.001;    0.000;-35.99509
 291.44;  -89.990;  -50.002;    0.000;-39.98793
 292.04;  -40.994;  -83.002;    0.000;42.00794
 292.64;   30.013;  -32.003;    0.000;62.01568
 293.24;  -24.991;    7.998;    0.000;-32.98841
 293.84;  -20.981;  -23.005;    0.000; 2.02382
 294.44;   37.018;    6.995;    0.000;30.02276
 295.04;  -62.987;  -40.003;    0.000;-22.98420
 295.64;  -38.993;  -64.002;    0.000;25.00931
 296.24;  -32.992;  -40.002;    0.000; 7.00971
 296.84;  -41.990;  -15.003;    0.000;-26.98715
 297.44;  -87.984;  -39.004;    0.000;-48.98058
 298.04;  -58.996;  -68.001;    0.000; 9.00472
 298.64;  -63.992;  -24.002;    0.000;-39.98962
 299.24;    2.018;  -12.004;    0.000;14.02197
 299.84;  -14.992;  -40.002;    0.000;25.01045
 300.44;   26.013;   14.997;    0.000;11.01655
 301.04;  -41.995;   33.999;    0.000;-75.99355
 301.64;  -27.981;  -46.005;    0.000;18.02331
 302.24;  -28.984;    7.996;    0.000;-36.98019
 302.83;    3.004;    9.999;    0.000;-6.99458
 303.43;  -30.982;    6.996;    0.000;-37.97787
 304.03;   -4.978;  -21.006;    0.000;16.02763
 304.63;  -33.989;   24.997;    0.000;-58.98569
 305.23;  -61.987;  -46.003;    0.000;-15.98357
 305.83;  -48.985;    0.996;    0.000;-49.98176
 306.43;  -12.985;   11.996;    0.000;-24.98141
 307.03;  -38.982;   -3.005;    0.000;-35.97744
 307.63;  -10.986;  -15.004;    0.000; 4.01804
 308.23;    7.017;   22.996;    0.000;-15.97842
 308.83;  -25.981;    8.995;    0.000;-34.97658
 309.43;  -28.976;   17.994;    0.000;-46.97060
 310.03;  -64.975;  -41.006;    0.000;-23.96927
 310.63;  -31.979;   -2.005;    0.000;-29.97386
 311.23;  -69.975;  -10.006;    0.000;-59.96856
 311.83;  -66.985;   19.996;    0.000;-86.98110
 312.43;  -87.990;   -3.003;    0.000;-84.98703
 313.02;  -22.980;   -9.005;    0.000;-13.97555
 313.62;    4.013;  -51.003;    0.000;55.01682
 314.22;  -32.984;  -39.004;    0.000; 6.01985
 314.82;    9.020;  -44.005;    0.000;53.02507
 315.42;    6.024;    9.994;    0.000;-3.96970
 316.02;  -68.979;   37.995;    0.000;-106.97418
 316.62;    2.028;    1.993;    0.000; 0.03459
 317.22;  -91.975;   -7.006;    0.000;-84.96872
 317.82;  -35.977;  -32.006;    0.000;-3.97170
 318.42;   99.014;  -39.003;    0.000;138.01698
 319.01;   17.023;   14.994;    0.000; 2.02912
 319.61;  -24.975;    8.994;    0.000;-33.96856
 320.21;  -59.977;    3.994;    0.000;-63.97139
 320.81;  -61.968;   23.992;    0.000;-85.95968
 321.41;   21.015;  -16.004;    0.000;37.01824
 322.01;  -32.980;  -28.005;    0.000;-4.97457
 322.61;  -76.971;  -42.007;    0.000;-34.96341
 323.21;  -63.976;  -44.006;    0.000;-19.96950
 323.80;  -38.977;   -6.006;    0.000;-32.97080
 324.40;   -6.964;  -18.009;    0.000;11.04461
 325.00;  -12.970;  -30.008;    0.000;17.03793
 325.60;   -1.970;  -51.007;    0.000;49.03710
 326.20;  -51.973;   -2.007;    0.000;-49.96644
 326.80;  -70.969;   14.992;    0.000;-85.96148
 327.40;  -23.963;  -19.009;    0.000;-4.95343
 327.99;   -7.954;  -21.011;    0.000;13.05726
 328.59;  -26.952;   21.988;    0.000;-48.94022
 329.19;  108.053;   -9.013;    0.000;117.06599
 329.79;  -41.948;   32.987;    0.000;-74.93515
 330.39;   60.055;   20.986;    0.000;39.06862
 330.99;  -69.948;  -19.013;    0.000;-50.93496
 331.58;  -48.940;  -19.015;    0.000;-29.92552
 332.18;   -5.933;  -29.017;    0.000;23.08320
 332.78;   13.069;   -9.017;    0.000;22.08564
 333.38;  102.076;  -12.019;    0.000;114.09543
 333.98;  -52.928;   -9.018;    0.000;-43.91055
 334.57;   39.075;  -52.019;    0.000;91.09393
 335.17;  -70.929;  -22.018;    0.000;-48.91133
 335.77;  -33.932;   36.983;    0.000;-70.91562
 336.37;   73.075;  -18.019;    0.000;91.09334
 336.97;  -40.938;  -19.015;    0.000;-21.92305
 337.56;  -33.935;   29.984;    0.000;-63.91861
 338.16;   44.062;    8.984;    0.000;35.07770
 338.76;   31.050;  -19.012;    0.000;50.06202
 339.36;  -87.944;   14.986;    0.000;-102.93040
 339.96;   -9.947;   10.987;    0.000;-20.93389
 340.55;  -22.948;   52.987;    0.000;-75.93480
 341.15;  -37.947;    6.987;    0.000;-44.93366
 341.75;  -34.939;   15.985;    0.000;-50.92426
 342.35;  -45.939;    1.985;    0.000;-47.92371
 342.94;  -10.924;   10.981;    0.000;-21.90454
 343.54;  -54.935;  -47.016;    0.000;-7.91880
 344.14;  -10.934;   38.983;    0.000;-49.91731
 344.74;  -40.929;   11.982;    0.000;-52.91078
 345.33;   -6.937;  -49.016;    0.000;42.07825
 345.93;  -14.938;  -42.016;    0.000;27.07794
 346.53;  -23.944;  -28.014;    0.000; 4.06945
 347.13;  -20.942;   -8.015;    0.000;-12.92690
 347.72;  -24.933;    1.983;    0.000;-26.91593
 348.32;  -30.943;  -36.014;    0.000; 5.07125
 348.92;   -3.939;  -29.015;    0.000;25.07589
 349.52;  -41.937;  -12.016;    0.000;-29.92171
 350.11;  -28.936;   11.984;    0.000;-40.92053
 350.71;  -85.942;  -17.014;    0.000;-68.92757
 351.31;   28.055;  -60.014;    0.000;88.06901
 351.91;  -19.944;  -36.014;    0.000;16.06984
 352.50;  -66.943;   -6.014;    0.000;-60.92910
 353.10;  -75.942;  -58.015;    0.000;-17.92713
 353.70;   23.050;  -19.012;    0.000;42.06190
 354.29;  172.059;   27.985;    0.000;144.07381
 354.89;   16.067;    9.983;    0.000; 6.08320
 355.49;   23.051;  -29.013;    0.000;52.06394
 356.09;  -19.936;   -7.016;    0.000;-12.91963
 356.68;  -71.944;  -73.014;    0.000; 1.07043
 357.28;  -63.932;   29.983;    0.000;-93.91460
 357.88;    2.067;  -45.017;    0.000;47.08348
 358.47;  -46.940;    2.985;    0.000;-49.92505
 359.07;  -71.944;    4.986;    0.000;-76.92965
 359.67;  -41.942;   14.986;    0.000;-56.92812
 360.26;  -25.942;  -41.015;    0.000;15.07294
 360.86;  -96.937;  -41.016;    0.000;-55.92108
 361.46;   19.051;  -70.013;    0.000;89.06363
 362.05;    6.063;   -0.016;    0.000; 6.07856
 362.65;   37.052;   -0.013;    0.000;37.06461
 363.25;    3.052;   54.987;    0.000;-51.93527
 363.84;  -35.949;  -16.013;    0.000;-19.93613
 364.44;    5.055;    6.986;    0.000;-1.93106
 365.04;  -36.944;  -46.014;    0.000; 9.06988
 365.63;  -19.946;  -16.014;    0.000;-3.93213
 366.23;    2.051;  -12.013;    0.000;14.06347
 366.83;  -87.946;  -34.014;    0.000;-53.93224
 367.42;  -18.940;  -36.015;    0.000;17.07495
 368.02;    3.055;  -13.014;    0.000;16.06819
 368.62;  -31.939;  -58.015;    0.000;26.07644
 369.21;    7.060;   17.985;    0.000;-10.92482
 369.81;   82.059;  -29.015;    0.000;111.07349
 370.41;  -61.956;   -8.011;    0.000;-53.94474
 371.00;  -31.933;  -50.017;    0.000;18.08395
 371.60;  -57.935;    4.984;    0.000;-62.91923
 372.19;  -73.942;   12.985;    0.000;-86.92698
 372.79;  -76.950;   16.988;    0.000;-93.93763
 373.39;   23.054;  -20.013;    0.000;43.06705
 373.98;  -55.939;   -9.015;    0.000;-46.92360
 374.58;    3.056;   16.986;    0.000;-13.92985
 375.17;   51.071;  -10.018;    0.000;61.08855
 375.77;   -1.939;  -25.015;    0.000;23.07684
 376.37;  -70.938;   49.984;    0.000;-120.92195
 376.96;  -35.939;   -2.015;    0.000;-33.92332
 377.56;   73.055;  -24.014;    0.000;97.06878
 378.15;  -27.944;  -63.014;    0.000;35.07059
 378.75;  -12.938;   14.985;    0.000;-27.92281
 379.35;  -48.940;  -13.015;    0.000;-35.92454
 379.94;  -17.936;   34.984;    0.000;-52.92037
 380.54;    3.066;  -18.017;    0.000;21.08265
 381.13;  -69.938;  -32.015;    0.000;-37.92265
 381.73;  -65.949;  -10.013;    0.000;-55.93586
 382.32;   -8.953;    4.988;    0.000;-13.94113
 382.92;  -70.939;  -60.015;    0.000;-10.92423
 383.52;  -14.943;   -3.014;    0.000;-11.92937
 384.11;  -32.939;   17.985;    0.000;-50.92391
 384.71;  -28.934;  -49.017;    0.000;20.08305
 385.30;   54.064;  -29.016;    0.000;83.08029
 385.90;    0.060;  -72.015;    0.000;72.07518
 386.49;  -84.935;  -51.016;    0.000;-33.91833
 387.09;   21.068;   14.983;    0.000; 6.08466
 387.68;  -51.942;  -56.014;    0.000; 4.07243
 388.28;  -30.941;   -3.015;    0.000;-27.92686
 388.87;  100.050;  -44.013;    0.000;144.06304
 389.47;  -20.934;  -14.016;    0.000;-6.91806
 390.07;  -28.939;  -58.015;    0.000;29.07574
 390.66;   12.056;  -22.014;    0.000;34.06976
 391.26;  -74.936;  -51.016;    0.000;-23.92041
 391.85;  -47.939;   21.985;    0.000;-69.92332
 392.45;  -29.937;  -39.016;    0.000; 9.07841
 393.04;  -30.947;  -17.013;    0.000;-13.93319
 393.64;  -91.944;  -27.014;    0.000;-64.92981
 394.23;   -7.940;  -30.015;    0.000;22.07507
 394.83;  -65.944;  -39.014;    0.000;-26.92985
 395.42;  -42.930;   19.983;    0.000;-62.91255
 396.02;  -26.946;  -62.014;    0.000;35.06811
 396.61;  -67.933;    3.983;    0.000;-71.91609
 397.21;  -75.940;   14.985;    0.000;-90.92442
 397.80; 5847.059;  567.985;    0.000;5279.07361
 398.40;   19.060;   17.985;    0.000; 1.07534
 398.99;  -13.940;   -3.015;    0.000;-10.92505
 399.59;  -51.935;  -10.016;    0.000;-41.91849
 400.18;  -87.941;  -15.015;    0.000;-72.92607
 400.78;  -53.942;  -66.015;    0.000;12.07275
 401.37;  -44.949;  -59.013;    0.000;14.06355
 401.96;  -70.938;  -29.016;    0.000;-41.92199
 402.56;  -75.942;  -63.015;    0.000;-12.92721
 403.15;  -81.941;  -17.015;    0.000;-64.92639
 403.75;   -0.946;  -27.013;    0.000;26.06709
 404.34;  -81.938;  -27.015;    0.000;-54.92285
 404.94;  -37.940;  -61.015;    0.000;23.07546
 405.53;  -39.937;  -51.016;    0.000;11.07904
 406.13;   17.064;  -41.016;    0.000;58.08061
 406.72;  -81.948;  -31.013;    0.000;-50.93468
 407.32;  -58.940;  -38.015;    0.000;-20.92489
 407.91;   -0.942;  -82.015;    0.000;81.07271
 408.50;  -57.951;  -40.012;    0.000;-17.93920
 409.10;  -48.942;  -18.015;    0.000;-30.92737
 409.69;   53.053;  -36.013;    0.000;89.06634
 410.29;  -38.946;   -3.014;    0.000;-35.93197
 410.88;  -32.942;   -7.014;    0.000;-25.92792
 411.47;  -42.946;  -28.013;    0.000;-14.93260
 412.07; -118.946;   -5.014;    0.000;-113.93240
 412.66;  -48.945;  -36.014;    0.000;-12.93185
 413.26;   -5.948;  -32.013;    0.000;26.06446
 413.85;  -29.949;  -45.013;    0.000;15.06316
 414.45;   56.057;   -4.014;    0.000;60.07149
 415.04;  -84.949;   -6.013;    0.000;-78.93613
 415.63;  -18.943;   -4.014;    0.000;-14.92843
 416.23; -114.943;   -2.014;    0.000;-112.92827
 416.82;   -4.941;  -25.015;    0.000;20.07420
 417.41;  -23.952;   19.988;    0.000;-43.94026
 418.01;   39.056;    8.986;    0.000;30.06992
 418.60;  -84.940;   -0.015;    0.000;-84.92513
 419.20;  -19.946;   42.987;    0.000;-62.93279
 419.79;  -89.949;  -46.013;    0.000;-43.93676
 420.38;   42.053;  -18.013;    0.000;60.06595
 420.98;  -97.950;  -43.013;    0.000;-54.93696
 421.57;  -16.945;  -20.014;    0.000; 3.06858
 422.16;   -5.953;  -10.012;    0.000; 4.05903
 422.76;  -44.953;  -27.012;    0.000;-17.94168
 423.35;  -22.948;   10.987;    0.000;-33.93448
 423.94;   -6.952;   27.988;    0.000;-34.94018
 424.54;  -39.955;    5.989;    0.000;-45.94325
 425.13;  -42.943;    2.986;    0.000;-45.92922
 425.73;  -11.950;  -39.012;    0.000;27.06206
 426.32;  -17.947;  -37.013;    0.000;19.06607
 426.91;   15.045;  -48.011;    0.000;63.05604
 427.51;   -1.958;  -29.011;    0.000;27.05302
 428.10;  -44.953;  -68.012;    0.000;23.05880
 428.69;  -75.953;   -6.012;    0.000;-69.94065
 429.28;  -92.944;  -40.014;    0.000;-52.92961
 429.88;   -2.948;    9.987;    0.000;-12.93551
 430.47;  -46.957;  -18.011;    0.000;-28.94655
 431.06;   -8.953;  -32.012;    0.000;23.05895
 431.66;  -31.955;  -37.011;    0.000; 5.05604
 432.25;  -52.953;  -36.012;    0.000;-16.94113
 432.84;  -38.959;  -33.010;    0.000;-5.94871
 433.44;  -51.948;   12.987;    0.000;-64.93448
 434.03;   12.041;  -66.010;    0.000;78.05176
 434.62;  -41.953;  -27.012;    0.000;-14.94160
 435.22;  -49.966;  -34.009;    0.000;-15.95728
 435.81;  -53.955;    4.989;    0.000;-58.94419
 436.40;  -33.961;  -35.010;    0.000; 1.04901
 436.99;  -71.953;   -7.012;    0.000;-64.94175
 437.59; -136.955;  -25.011;    0.000;-111.94431
 438.18;   -2.960;   -7.010;    0.000; 4.05031
 438.77;  -66.961;  -49.010;    0.000;-17.95103
 439.36;  -34.954;  -34.012;    0.000;-0.94227
 439.96;   18.035;  -49.009;    0.000;67.04363
 440.55;  -78.957;  -45.011;    0.000;-33.94647
 441.14;  -20.961;  -29.010;    0.000; 8.04936
 441.73;   -9.947;    4.987;    0.000;-14.93413
 442.33;  -36.952;  -53.012;    0.000;16.06056
 442.92;   31.037;   20.991;    0.000;10.04602
 443.51;  -44.957;  -34.011;    0.000;-10.94627
 444.10;   -6.954;   -9.011;    0.000; 2.05711
 444.70;  -38.964;   10.991;    0.000;-49.95457
 445.29;  -68.952;    0.988;    0.000;-69.93963
 445.88;   34.044;  -39.011;    0.000;73.05549
 446.47;   -4.964;    2.991;    0.000;-7.95468
 447.07;   -8.962;  -48.010;    0.000;39.04763
 447.66;   -5.954;  -41.011;    0.000;35.05711
 448.25;   28.040;  -41.010;    0.000;69.05035
 448.84;  -42.959;  -16.010;    0.000;-26.94816
 449.43;  -37.969;  -20.008;    0.000;-17.96125
 450.03;  -10.949;    3.987;    0.000;-14.93590
 450.62;  -24.953;  -26.012;    0.000; 1.05840
 451.21;   24.049;   24.988;    0.000;-0.93873
 451.80;   -0.959;  -34.010;    0.000;33.05105
 452.39;    3.038;    3.991;    0.000;-0.95252
 452.99;  -56.965;  -50.009;    0.000;-6.95649
 453.58;  -46.964;   24.991;    0.000;-71.95504
 454.17;  -33.972;  -21.007;    0.000;-12.96518
 454.76;  -24.968;  -17.008;    0.000;-7.96038
 455.35;    2.035;   11.991;    0.000;-9.95590
 455.95;    9.041;  -45.010;    0.000;54.05090
 456.54;  -20.969;   -5.008;    0.000;-15.96070
 457.13;   31.040;   28.990;    0.000; 2.04960
 457.72;  -21.971;  -18.007;    0.000;-3.96400
 458.31;  -18.970;  -48.008;    0.000;29.03793
 458.90;   35.038;  -66.010;    0.000;101.04763
 459.50;   -8.960;  -23.010;    0.000;14.04980
 460.09;  -39.958; -103.011;    0.000;63.05310
 460.68;  -16.963;  -65.009;    0.000;48.04579
 461.27;   11.038;  -32.010;    0.000;43.04759
 461.86;    7.034;  -61.009;    0.000;68.04304
 462.45;   22.022;  -45.005;    0.000;67.02704
 463.04;  -17.961;  -10.010;    0.000;-7.95127
 463.64;   86.026;  -44.007;    0.000;130.03254
 464.23;   73.038;  -34.009;    0.000;107.04689
 464.82;   -5.966;  -32.008;    0.000;26.04201
 465.41;   57.021;    8.995;    0.000;48.02665
 466.00;   -2.967;  -13.008;    0.000;10.04178
 466.59;   35.024;   -0.006;    0.000;35.02967
 467.18;   85.027;    4.993;    0.000;80.03352
 467.77;   85.031;   -2.008;    0.000;87.03926
 468.37;   95.038;    8.991;    0.000;86.04744
 468.96;  116.038;  -51.010;    0.000;167.04759
 469.55;   96.034;  -52.009;    0.000;148.04264
 470.14;   94.038;    5.991;    0.000;88.04701
 470.73;  119.041;  -27.010;    0.000;146.05164
 471.32;  215.032;  -62.008;    0.000;277.03950
 471.91;  140.029;  -33.007;    0.000;173.03683
 472.50;  266.043;  -48.011;    0.000;314.05318
 473.09;  177.024;  -57.006;    0.000;234.02952
 473.68;  289.041;    9.990;    0.000;279.05097
 474.27;  240.025;  -75.006;    0.000;315.03187
 474.86;  272.033;  -13.008;    0.000;285.04127
 475.46;  317.029;  -64.007;    0.000;381.03584
 476.05;  412.029;   -3.007;    0.000;415.03620
 476.64;  353.028;  -73.007;    0.000;426.03443
 477.23;  332.031;  -28.008;    0.000;360.03926
 477.82;  442.029;  -56.007;    0.000;498.03600
 478.41;  480.029;  -34.007;    0.000;514.03569
 479.00;  532.031;  -45.008;    0.000;577.03911
 479.59;  722.036;  -13.009;    0.000;735.04535
 480.18;  680.026;  -32.006;    0.000;712.03207
 480.77;  777.026;    3.993;    0.000;773.03254
 481.36;  876.026;  -81.006;    0.000;957.03227
 481.95; 1024.032;  -11.008;    0.000;1035.04009
 482.54; 1113.039;  -72.010;    0.000;1185.04838
 483.13; 1232.033;    5.992;    0.000;1226.04099
 483.72; 1349.024;  -40.006;    0.000;1389.02995
 484.31; 1404.028;  -23.007;    0.000;1427.03529
 484.90; 1480.027;  -65.007;    0.000;1545.03404
 485.49; 1796.020;  -12.005;    0.000;1808.02488
 486.08; 1806.024;  -45.006;    0.000;1851.03054
 486.67; 2170.022;  -36.006;    0.000;2206.02759
 487.26; 2368.023;  -33.006;    0.000;2401.02834
 487.85; 2512.028;  -47.007;    0.000;2559.03463
 488.44; 2744.033;   -0.008;    0.000;2744.04087
 489.03; 3007.025;  -59.006;    0.000;3066.03183
 489.62; 3187.022;   -8.006;    0.000;3195.02787
 490.21; 3588.026;  -29.007;    0.000;3617.03282
 490.80; 3708.023;  -47.006;    0.000;3755.02869
 491.39; 4188.026;  -36.007;    0.000;4224.03294
 491.98; 4502.024;  -55.006;    0.000;4557.02991
 492.57; 4899.018;    7.995;    0.000;4891.02303
 493.16; 5130.030;  -44.008;    0.000;5174.03785
 493.75; 5682.030;   37.993;    0.000;5644.03714
 494.34; 5672.028;  -36.007;    0.000;5708.03474
 494.93; 6103.021;   -2.005;    0.000;6105.02570
 495.52; 6320.030;  -30.008;    0.000;6350.03789
 496.11; 6739.029;  -20.007;    0.000;6759.03655
 496.70; 7059.037;  -59.009;    0.000;7118.04626
 497.29; 7344.029;  -42.007;    0.000;7386.03565
 497.88; 7830.026;  -65.006;    0.000;7895.03246
 498.47; 8136.025;  -29.006;    0.000;8165.03156
 499.06; 8244.030;    5.992;    0.000;8238.03773
 499.64; 8265.024;  -14.006;    0.000;8279.03011
 500.23; 8534.028;  -31.007;    0.000;8565.03502
 500.82; 8785.027;  -41.007;    0.000;8826.03372
 501.41; 8828.033;  -46.008;    0.000;8874.04115
 502.00; 9056.030;   26.993;    0.000;9029.03730
 502.59; 9053.026;  -39.007;    0.000;9092.03282
 503.18; 9143.027;  -60.007;    0.000;9203.03431
 503.77; 9147.027;    3.993;    0.000;9143.03415
 504.36; 9162.026;   -9.006;    0.000;9171.03211
 504.95; 9140.027;  -26.007;    0.000;9166.03337
 505.54; 9376.028;  -20.007;    0.000;9396.03537
 506.12; 9140.027;  -30.007;    0.000;9170.03404
 506.71; 9127.027;  -30.007;    0.000;9157.03396
 507.30; 9067.034;  -34.009;    0.000;9101.04288
 507.89; 8742.034;   -3.009;    0.000;8745.04264
 508.48; 8836.025;   33.994;    0.000;8802.03097
 509.07; 8428.037;   -9.009;    0.000;8437.04669
 509.66; 8332.024;  -47.006;    0.000;8379.03003
 510.25; 8099.034;   42.992;    0.000;8056.04201
 510.84; 7953.030;  -55.008;    0.000;8008.03753
 511.42; 7726.028;  -17.007;    0.000;7743.03443
 512.01; 7826.014;  -58.004;    0.000;7884.01784
 512.60; 7292.029;  -20.007;    0.000;7312.03679
 513.19; 7156.030;    1.992;    0.000;7154.03785
 513.78; 6786.032;  -62.008;    0.000;6848.03954
 514.37; 6793.024;  -18.006;    0.000;6811.02987
 514.95; 6553.019;  -29.005;    0.000;6582.02429
 515.54; 6172.026;  -38.007;    0.000;6210.03254
 516.13; 6060.029;  -35.007;    0.000;6095.03679
 516.72; 5877.025;  -25.006;    0.000;5902.03077
 517.31; 5714.024;  -73.006;    0.000;5787.03003
 517.90; 5447.023;   35.994;    0.000;5411.02826
 518.48; 5142.025;  -13.006;    0.000;5155.03140
 519.07; 5052.031;  -15.008;    0.000;5067.03867
 519.66; 4956.021;    6.995;    0.000;4949.02637
 520.25; 4641.023;  -16.006;    0.000;4657.02869
 520.84; 4541.028;   -8.007;    0.000;4549.03470
 521.43; 4347.022;   -6.005;    0.000;4353.02739
 522.01; 4350.022;  -14.006;    0.000;4364.02794
 522.60; 4072.026;    3.994;    0.000;4068.03215
 523.19; 3856.024;  -14.006;    0.000;3870.03046
 523.78; 3731.028;  -46.007;    0.000;3777.03506
 524.37; 3537.032;  -29.008;    0.000;3566.03938
 524.95; 3437.021;  -35.005;    0.000;3472.02586
 525.54; 3376.028;   -8.007;    0.000;3384.03533
 526.13; 3164.027;  -27.007;    0.000;3191.03325
 526.72; 3087.016;    2.996;    0.000;3084.02004
 527.30; 2895.022;  -32.005;    0.000;2927.02724
 527.89; 2878.029;  -26.007;    0.000;2904.03580
 528.48; 2692.021;  -26.005;    0.000;2718.02606
 529.07; 2672.027;  -32.007;    0.000;2704.03427
 529.65; 2432.019;  -56.005;    0.000;2488.02358
 530.24; 2413.028;  -14.007;    0.000;2427.03451
 530.83; 2413.020;  -55.005;    0.000;2468.02476
 531.42; 2294.022;    4.994;    0.000;2289.02751
 532.00; 2100.025;    1.994;    0.000;2098.03132
 532.59; 2098.017;  -64.004;    0.000;2162.02067
 533.18; 1881.017;  -69.004;    0.000;1950.02114
 533.77; 1942.026;   15.993;    0.000;1926.03250
 534.35; 1797.022;  -67.006;    0.000;1864.02810
 534.94; 1706.022;    0.995;    0.000;1705.02731
 535.53; 1589.016;  -26.004;    0.000;1615.01981
 536.12; 1506.029;   18.993;    0.000;1487.03600
 536.70; 1423.015;  -86.004;    0.000;1509.01831
 537.29; 1426.019;  -20.005;    0.000;1446.02413
 537.88; 1363.019;  -43.005;    0.000;1406.02390
 538.46; 1166.024;  -39.006;    0.000;1205.02959
 539.05; 1093.019;  -42.005;    0.000;1135.02346
 539.64; 1059.015;   14.996;    0.000;1044.01902
 540.23; 1061.021;   29.995;    0.000;1031.02653
 540.81; 1041.017;  -38.004;    0.000;1079.02126
 541.40;  951.028;  -23.007;    0.000;974.03443
 541.99;  942.021;   -1.005;    0.000;943.02653
 542.57;  952.019;  -48.005;    0.000;1000.02397
 543.16;  794.025;  -25.006;    0.000;819.03077
 543.75;  779.013;  -37.003;    0.000;816.01576
 544.33;  761.019;  -18.005;    0.000;779.02437
 544.92;  701.013;  -14.003;    0.000;715.01635
 545.51;  650.020;   27.995;    0.000;622.02555
 546.09;  613.024;  -14.006;    0.000;627.03014
 546.68;  649.023;   24.994;    0.000;624.02908
 547.27;  581.015;  -33.004;    0.000;614.01918
 547.85;  490.017;  -29.004;    0.000;519.02166
 548.44;  489.015;  -80.004;    0.000;569.01824
 549.03;  530.014;  -17.003;    0.000;547.01725
 549.61;  451.024;  -73.006;    0.000;524.03003
 550.20;  426.017;  -23.004;    0.000;449.02091
 550.78;  455.021;  -42.005;    0.000;497.02590
 551.37;  472.009;  -44.002;    0.000;516.01081
 551.96;  337.013;  -24.003;    0.000;361.01651
 552.54;  329.030;  -25.007;    0.000;354.03694
 553.13;  361.023;  -25.006;    0.000;386.02849
 553.72;  405.019;  -33.005;    0.000;438.02413
 554.30;  364.009;  -78.002;    0.000;442.01144
 554.89;  358.010;  -34.002;    0.000;392.01211
 555.47;  277.017;   -0.004;    0.000;277.02122
 556.06;  308.022;   30.995;    0.000;277.02700
 556.65;  263.018;  -88.004;    0.000;351.02244
 557.23;  330.019;  -63.005;    0.000;393.02350
 557.82;  237.014;  -71.003;    0.000;308.01737
 558.40;  248.017;   -6.004;    0.000;254.02134
 558.99;  208.029;  -46.007;    0.000;254.03624
 559.58;  213.023;    7.994;    0.000;205.02853
 560.16;  105.028;   24.993;    0.000;80.03533
 560.75;  162.025;  -18.006;    0.000;180.03073
 561.33;  232.017;  -39.004;    0.000;271.02158
 561.92;  150.023;  -55.006;    0.000;205.02889
 562.50;  143.016;  -12.004;    0.000;155.01965
 563.09;  154.019;  -62.005;    0.000;216.02374
 563.68;  143.018;   -7.004;    0.000;150.02205
 564.26;  106.021;   -6.005;    0.000;112.02582
 564.85;  121.019;  -39.005;    0.000;160.02331
 565.43;  115.021;   -6.005;    0.000;121.02653
 566.02;  131.020;  -39.005;    0.000;170.02488
 566.60;  137.015;  -28.004;    0.000;165.01863
 567.19;  137.021;  -31.005;    0.000;168.02673
 567.77;   58.011;   -0.003;    0.000;58.01317
 568.36;   80.012;  -49.003;    0.000;129.01545
 568.94;  131.016;  -42.004;    0.000;173.02028
 569.53;   71.017;  -20.004;    0.000;91.02185
 570.11;   78.010;   25.998;    0.000;52.01218
 570.70;   71.016;  -74.004;    0.000;145.02020
 571.28;   54.027;  -11.007;    0.000;65.03333
 571.87;   28.010;  -65.002;    0.000;93.01222
 572.45;   41.014;   -4.003;    0.000;45.01745
 573.04;   55.025;   -3.006;    0.000;58.03093
 573.62;   17.016;  -65.004;    0.000;82.01973
 574.21;   81.018;   -9.004;    0.000;90.02209
 574.79;   90.028;   28.993;    0.000;61.03490
 575.38;   27.016;  -32.004;    0.000;59.02008
 575.96;   21.010;  -42.003;    0.000;63.01269
 576.55;   15.013;  -64.003;    0.000;79.01678
 577.13;   68.011;  -43.003;    0.000;111.01380
 577.72;    1.015;  -35.004;    0.000;36.01839
 578.30;   33.020;    5.995;    0.000;27.02515
 578.89;    3.009;  -71.002;    0.000;74.01159
 579.47;   25.019;  -84.005;    0.000;109.02433
 580.06;   46.024;  -27.006;    0.000;73.02948
 580.64;   56.016;  -20.004;    0.000;76.01949
 581.23;   -2.984;  -27.004;    0.000;24.01973
 581.81;   63.019;  -18.005;    0.000;81.02358
 582.39;    3.015;  -46.004;    0.000;49.01886
 582.98;   25.024;  -32.006;    0.000;57.02975
 583.56;   36.026;  -42.006;    0.000;78.03242
 584.15;   12.020;  -10.005;    0.000;22.02547
 584.73;   48.025;  -25.006;    0.000;73.03160
 585.32;  -16.980;  -15.005;    0.000;-1.97477
 585.90;   23.025;  -52.006;    0.000;75.03121
 586.48;  -45.982;  -63.004;    0.000;17.02221
 587.07;   -3.983;  -19.004;    0.000;15.02126
 587.65;   32.017;  -39.004;    0.000;71.02142
 588.24;   -5.985;  -37.004;    0.000;31.01910
 588.82;    5.017;   43.996;    0.000;-38.97937
 589.41;  671.014;   20.996;    0.000;650.01753
 589.99;   62.022;  -10.005;    0.000;72.02696
 590.57;  -31.989;  -59.003;    0.000;27.01399
 591.16;  103.022;  -19.006;    0.000;122.02802
 591.74;   25.016;  -16.004;    0.000;41.02008
 592.32;  -70.987;   -8.003;    0.000;-62.98322
 592.91;    3.023;  -55.006;    0.000;58.02873
 593.49;  -17.987;   -4.003;    0.000;-13.98369
 594.08;  -35.979;  -45.005;    0.000; 9.02618
 594.66;    6.014;  -26.003;    0.000;32.01706
 595.24;  -46.987;   -4.003;    0.000;-42.98432
 595.83;  -54.981;  -44.005;    0.000;-10.97685
 596.41;  -44.992;  -46.002;    0.000; 1.00967
 596.99;  -21.988;    6.997;    0.000;-28.98467
 597.58;  -10.986;  -67.004;    0.000;56.01784
 598.16;  -31.975;  -76.006;    0.000;44.03164
 598.74;   65.015;   -8.004;    0.000;73.01906
 599.33;   -2.980;  -49.005;    0.000;46.02449
 599.91;  -36.979;   -8.005;    0.000;-28.97375
 600.49;  -17.977;  -10.006;    0.000;-7.97096
 601.08;    6.013;    5.997;    0.000; 0.01627
 601.66;  -53.986;   -8.003;    0.000;-45.98294
 602.24;  -54.989;  -44.003;    0.000;-10.98569
 602.83;  -44.988;  -56.003;    0.000;11.01493
 603.41;  -50.987;  -57.003;    0.000; 6.01666
 603.99;   -6.967;  -15.008;    0.000; 8.04091
 604.58;    5.015;  -44.004;    0.000;49.01934
 605.16;   -1.981;    3.995;    0.000;-5.97630
 605.74;  -63.984;  -40.004;    0.000;-23.97992
 606.33;   22.014;   18.996;    0.000; 3.01800
 606.91;  -58.979;  -23.005;    0.000;-35.97335
 607.49;  -39.981;  -22.005;    0.000;-17.97614
 608.07;  -22.987;  -38.003;    0.000;15.01592
 608.66;  -21.986;   45.996;    0.000;-67.98196
 609.24;  -16.986;  -10.003;    0.000;-6.98282
 609.82;  -57.982;   -0.004;    0.000;-57.97811
 610.41;    4.017;  -77.004;    0.000;81.02122
 610.99;  -29.985;  -23.004;    0.000;-6.98125
 611.57;   33.009;  -29.002;    0.000;62.01179
 612.15;  -50.983;   -5.004;    0.000;-45.97882
 612.74;    5.009;  -74.002;    0.000;79.01163
 613.32;  -21.984;    8.996;    0.000;-30.97964
 613.90;  -16.986;  -27.004;    0.000;10.01784
 614.48;  -99.981;   -9.005;    0.000;-90.97681
 615.07;  -62.975;   -4.006;    0.000;-58.96887
 615.65;  -37.993;  -39.002;    0.000; 1.00888
 616.23;  -26.984;  -35.004;    0.000; 8.02024
 616.81;  -62.972;   13.993;    0.000;-76.96498
 617.40;  -69.965;  -22.009;    0.000;-47.95665
 617.98;    6.041;  -62.010;    0.000;68.05105
 618.56; -114.974;  -19.006;    0.000;-95.96781
 619.14;  -17.970;  -32.007;    0.000;14.03734
 619.72;  -82.971;  -53.007;    0.000;-29.96313
 620.31;  -32.977;  -51.006;    0.000;18.02861
 620.89;  -10.981;  -67.005;    0.000;56.02382
 621.47;  -57.980;   -6.005;    0.000;-51.97465
 622.05;   -6.981;  -78.005;    0.000;71.02354
 622.63;  -77.976;   28.994;    0.000;-106.97021
 623.22;  -23.988;  -53.003;    0.000;29.01509
 623.80;  -19.975;   -8.006;    0.000;-11.96879
 624.38;   61.017;   12.996;    0.000;48.02067
 624.96;  -49.976;   -7.006;    0.000;-42.97025
 625.54;  -18.978;  -25.005;    0.000; 6.02743
 626.13;  -69.987;  -13.003;    0.000;-56.98334
 626.71;  146.019;  -30.005;    0.000;176.02405
 627.29;  -11.969;  -54.008;    0.000;42.03930
 627.87;  -46.980;  -83.005;    0.000;36.02488
 628.45;  -23.981;    0.995;    0.000;-24.97618
 629.03;  -24.978;  -78.005;    0.000;53.02728
 629.62;  -94.977;   -3.006;    0.000;-91.97182
 630.20;  -69.978;  -41.005;    0.000;-28.97304
 630.78;  -21.983;  -42.004;    0.000;20.02162
 631.36;  -23.974;  -11.007;    0.000;-12.96742
 631.94;   -8.984;  -31.004;    0.000;22.02055
 632.52;  -22.986;   26.996;    0.000;-49.98239
 633.10;   23.026;  -11.006;    0.000;34.03242
 633.68;  -30.976;  -45.006;    0.000;14.02999
 634.27;  -45.978;  -44.006;    0.000;-1.97221
 634.85;  -29.975;   -9.006;    0.000;-20.96887
 635.43;  -57.968;    0.992;    0.000;-58.95952
 636.01;  -75.981;  -29.005;    0.000;-46.97626
 636.59;  -59.979;  -47.005;    0.000;-12.97410
 637.17;  -54.963;  -48.009;    0.000;-6.95366
 637.75;  -54.973;  -41.007;    0.000;-13.96640
 638.33;   15.028; -115.007;    0.000;130.03463
 638.91;  -25.975;  -25.006;    0.000;-0.96856
 639.50;  -49.967;  -29.008;    0.000;-20.95826
 640.08;    4.023;  -20.006;    0.000;24.02913
 640.66;  -34.977;  -18.006;    0.000;-16.97094
 641.24;  -46.977;  -52.006;    0.000; 5.02899
 641.82;  -26.977;  -66.006;    0.000;39.02892
 642.40;   -2.977;   20.994;    0.000;-23.97115
 642.98;  -23.977;  -26.006;    0.000; 2.02878
 643.56;  -35.977;  -41.006;    0.000; 5.02870
 644.14;  -14.977;  -32.006;    0.000;17.02863
 644.72;    2.023;  -29.006;    0.000;31.02856
 645.30;  -46.977;  -53.006;    0.000; 6.02849
 645.88;  -31.977;   24.994;    0.000;-56.97158
 646.46;  -33.977;  -38.006;    0.000; 4.02835
 647.04; -113.977;  -54.006;    0.000;-59.97172
 647.62;  -14.977;  -14.006;    0.000;-0.97180
 648.20;   -5.977;   30.994;    0.000;-36.97187
 648.78;  -39.978;  -55.006;    0.000;15.02806
 649.36;   -6.978;  -37.006;    0.000;30.02799
 649.94;    5.022;  -43.006;    0.000;48.02792
 650.52;  -73.978;  -15.006;    0.000;-58.97215
 651.11;  -38.978;  -52.006;    0.000;13.02778
 651.69;  -29.978;   -8.006;    0.000;-21.97229
 652.27;  -24.978;  -12.006;    0.000;-12.97237
 652.85;  -17.978;  -88.006;    0.000;70.02756
 653.43;  -10.978;  -59.005;    0.000;48.02749
 654.01;  -59.978;  -26.005;    0.000;-33.97258
 654.59;  -76.978;  -40.005;    0.000;-36.97265
 655.17;  -42.978;  -68.005;    0.000;25.02728
 655.74;  -86.978;  -16.005;    0.000;-70.97279
 656.32;  -39.978;    1.995;    0.000;-41.97287
 656.90;  -31.978;  -43.005;    0.000;11.02706
 657.48;  -14.978;  -14.005;    0.000;-0.97301
 658.06;  -16.978;  -20.005;    0.000; 3.02692
 658.64;  -51.979;   29.995;    0.000;-81.97315
 659.22;  -33.979;  -27.005;    0.000;-6.97322
 659.80;  -77.979;  -76.005;    0.000;-1.97329
 660.38;  -92.979;  -25.005;    0.000;-67.97337
 660.96;  -48.979;  -62.005;    0.000;13.02656
 661.54;  -63.979;  -43.005;    0.000;-20.97351
 662.12;  -22.979;  -74.005;    0.000;51.02642
 662.70;  -34.979;  -74.005;    0.000;39.02635
 663.28;  -30.979;   24.995;    0.000;-55.97372
 663.86;  -35.979;  -25.005;    0.000;-10.97379
 664.44;   26.021;   47.995;    0.000;-21.97387
 665.02;  -72.979;    0.995;    0.000;-73.97394
 665.60;  -41.979;  -41.005;    0.000;-0.97401
 666.18;  -34.979;  -25.005;    0.000;-9.97408
 666.75;   66.021;  -63.005;    0.000;129.02585
 667.33;  -64.979;  -22.005;    0.000;-42.97422
 667.91;   69.021;   27.995;    0.000;41.02571
 668.49;   27.021;    3.995;    0.000;23.02563
 669.07;   10.020;   24.995;    0.000;-14.97444
 669.65;  -46.980;  -33.005;    0.000;-13.97451
 670.23;  -50.980;   24.995;    0.000;-75.97458
 670.81;  -86.980;  -20.005;    0.000;-66.97465
 671.39;  -56.980;  -66.005;    0.000; 9.02528
 671.97;  -72.980;  -43.005;    0.000;-29.97479
 672.54;  -31.980;   -9.005;    0.000;-22.97487
 673.12;  -90.980;  -13.005;    0.000;-77.97494
 673.70;   -1.980;  -38.005;    0.000;36.02499
 674.28;  -31.980;  -57.005;    0.000;25.02492
 674.86;  -56.980;  -12.005;    0.000;-44.97515
 675.44;  -69.980;   17.995;    0.000;-87.97522
 676.02;  -45.980;  -27.005;    0.000;-18.97529
 676.59;    9.020;   -9.005;    0.000;18.02463
 677.17;    2.020;  -55.005;    0.000;57.02456
 677.75;  -69.980;  -40.005;    0.000;-29.97551
 678.33;  -94.980;   -3.005;    0.000;-91.97558
 678.91;  -62.981;  -39.005;    0.000;-23.97565
 679.49;   -3.981;   32.995;    0.000;-36.97572
 680.06; -144.981;  -55.005;    0.000;-89.97579
 680.64;  -34.981;  -34.005;    0.000;-0.97587
 681.22;  -68.981;  -23.005;    0.000;-45.97594
 681.80;  -43.981;  -12.005;    0.000;-31.97601
 682.38;  -55.981;   -7.005;    0.000;-48.97608
 682.96;   39.019;   -2.005;    0.000;41.02385
 683.53;  -66.981;  -47.005;    0.000;-19.97622
 684.11;  -28.981;  -60.005;    0.000;31.02371
 684.69;  -17.981;   -8.005;    0.000;-9.97636
 685.27;  -35.981;   -0.005;    0.000;-35.97644
 685.85;  -49.981;  -61.005;    0.000;11.02349
 686.42;  -27.981;  -34.005;    0.000; 6.02342
 687.00;  -77.981;  -24.005;    0.000;-53.97665
 687.58;  -76.981;   33.995;    0.000;-110.97672
 688.16;  -57.981;  -62.005;    0.000; 4.02321
 688.73;  -94.981;  -37.005;    0.000;-57.97686
 689.31;  -49.982;  -11.005;    0.000;-38.97694
 689.89;   27.018;  -12.005;    0.000;39.02299
 690.47;   38.018;  -23.005;    0.000;61.02292
 691.04;  -38.982;  -49.005;    0.000;10.02285
 691.62;   -2.982;  -64.005;    0.000;61.02278
 692.20;  -70.982;  -46.005;    0.000;-24.97729
 692.78;  -49.982;  -56.005;    0.000; 6.02264
 693.35;  -14.982;  -22.005;    0.000; 7.02256
 693.93;  -66.982;   -8.004;    0.000;-58.97751
 694.51;  -65.982;   -4.004;    0.000;-61.97758
 695.09;  -74.982;  -55.004;    0.000;-19.97765
 695.66; -102.982;  -30.004;    0.000;-72.97772
 696.24;  -72.982;  -49.004;    0.000;-23.97779
 696.82;  -59.982;    3.996;    0.000;-63.97786
 697.39;  -42.982;  -24.004;    0.000;-18.97794
 697.97;  -35.982;  -20.004;    0.000;-15.97801
 698.55;  -78.982;  -19.004;    0.000;-59.97808
 699.13;  -30.983;  -31.004;    0.000; 0.02185
 699.70; -111.983;  -34.004;    0.000;-77.97822
 700.28; -101.983;  -44.004;    0.000;-57.97829
 700.86;  -95.983;  -14.004;    0.000;-81.97836
 701.43;  -51.983;  -20.004;    0.000;-31.97844
 702.01;  -86.983;  -39.004;    0.000;-47.97851
 702.59;  -33.983;  -63.004;    0.000;29.02142
 703.16; -116.983;  -14.004;    0.000;-102.97865
 703.74;  -47.983;   -1.004;    0.000;-46.97872
 704.32;   -9.983;  -46.004;    0.000;36.02121
 704.89;  -63.983;  -34.004;    0.000;-29.97886
 705.47;  -52.983;  -13.004;    0.000;-39.97894
 706.05;  -42.983;  -75.004;    0.000;32.02099
 706.62;  -59.983;  -60.004;    0.000; 0.02092
 707.20;  -88.983;  -21.004;    0.000;-67.97915
 707.78; -115.983;  -67.004;    0.000;-48.97922
 708.35;  -74.983;  -27.004;    0.000;-47.97929
 708.93;  -12.983;  -63.004;    0.000;50.02064
 709.51;  -55.984;  -92.004;    0.000;36.02056
 710.08; -103.984;  -28.004;    0.000;-75.97951
 710.66;    2.016;  -26.004;    0.000;28.02042
 711.23;  -36.984;  -57.004;    0.000;20.02035
 711.81;    1.016;  -58.004;    0.000;59.02028
 712.39;    6.016;  -20.004;    0.000;26.02021
 712.96;  -45.984;  -36.004;    0.000;-9.97986
 713.54;  -94.984;  -21.004;    0.000;-73.97994
 714.11;  -84.984;  -47.004;    0.000;-37.98001
 714.69;  -22.984;  -69.004;    0.000;46.01992
 715.27;   -6.984;  -60.004;    0.000;53.01985
 715.84;  -62.984;  -76.004;    0.000;13.01978
 716.42;  -83.984;  -57.004;    0.000;-26.98029
 716.99;  -69.984;   -9.004;    0.000;-60.98036
 717.57;   82.016;   -1.004;    0.000;83.01956
 718.15;  -18.984;  -48.004;    0.000;29.01949
 718.72;  -23.984;   -8.004;    0.000;-15.98058
 719.30;  -41.985; -100.004;    0.000;58.01935
 719.87; -110.985;    8.996;    0.000;-119.98072
 720.45;  -94.985;  -60.004;    0.000;-34.98079
 721.02;    6.015;  -66.004;    0.000;72.01914
 721.60;  -59.985;  -26.004;    0.000;-33.98093
 722.17;  -76.985;   -8.004;    0.000;-68.98101
 722.75;  -38.985;  -19.004;    0.000;-19.98108
 723.33;  -67.985;  -22.004;    0.000;-45.98115
 723.90;  -66.985;  -79.004;    0.000;12.01878
 724.48;   -1.985;  -79.004;    0.000;77.01871
 725.05;  -13.985;  -32.004;    0.000;18.01864
 725.63;  -83.985;  -38.004;    0.000;-45.98143
 726.20;  -67.985;  -13.004;    0.000;-54.98151
 726.78;  -21.985;   21.996;    0.000;-43.98158
 727.35;  -34.985;   16.996;    0.000;-51.98165
 727.93; -114.985;  -18.004;    0.000;-96.98172
 728.50;   82.015;  -43.004;    0.000;125.01821
 729.08;  -15.985;  -39.004;    0.000;23.01814
 729.65;   31.014;    0.996;    0.000;30.01807
 730.23;  -73.986;  -36.004;    0.000;-37.98201
 730.80;  -84.986;  -49.004;    0.000;-35.98208
 731.38;  -38.986;  -34.004;    0.000;-4.98215
 731.95;   26.014;  -41.004;    0.000;67.01778
 732.53;  -70.986;  -10.004;    0.000;-60.98229
 733.10;  -64.986;    1.996;    0.000;-66.98236
 733.68;  -84.986;  -27.004;    0.000;-57.98243
 734.25;  -14.986;  -49.003;    0.000;34.01749
 734.82;    7.014;   14.997;    0.000;-7.98258
 735.40;  -78.986;  -79.003;    0.000; 0.01735
 735.97;  -64.986;  -21.003;    0.000;-43.98272
 736.55;  -25.986;  -33.003;    0.000; 7.01721
 737.12;  -53.986;  -95.003;    0.000;41.01714
 737.70;  -71.986;  -84.003;    0.000;12.01707
 738.27;  -19.986;   -6.003;    0.000;-13.98301
 738.85;  -83.986;  -62.003;    0.000;-21.98308
 739.42;  -72.987;  -47.003;    0.000;-25.98315
 739.99;  -12.987;  -15.003;    0.000; 2.01678
 740.57;  -29.987;  -36.003;    0.000; 6.01671
 741.14;  -85.987;  -11.003;    0.000;-74.98336
 741.72;  -27.987;    0.997;    0.000;-28.98343
 742.29;  -61.987;  -39.003;    0.000;-22.98351
 742.87;  -20.987;    7.997;    0.000;-28.98358
 743.44;  -46.987;  -22.003;    0.000;-24.98365
 744.01;  -80.987;  -70.003;    0.000;-10.98372
 744.59;  -65.987;  -43.003;    0.000;-22.98379
 745.16;   23.013;    3.997;    0.000;19.01614
 745.73;  -53.987;  -58.003;    0.000; 4.01607
 746.31;  -57.987;  -33.003;    0.000;-24.98401
 746.88;  -87.987;  -57.003;    0.000;-30.98408
 747.46;  -42.987;  -18.003;    0.000;-24.98415
 748.03;  -57.987;  -36.003;    0.000;-21.98422
 748.60;  -68.987;  -39.003;    0.000;-29.98429
 749.18;  -74.987;  -72.003;    0.000;-2.98436
 749.75;  -49.988;  -43.003;    0.000;-6.98443
 750.32;  -76.988;  -73.003;    0.000;-3.98451
 750.90;  -22.988;   19.997;    0.000;-42.98458
 751.47;   28.012;   -5.003;    0.000;33.01535
 752.04;  -27.988;  -38.003;    0.000;10.01528
 752.62;  -42.988;  -35.003;    0.000;-7.98479
 753.19;  -54.988;  -11.003;    0.000;-43.98486
 753.76;  -58.988;  -64.003;    0.000; 5.01507
 754.34;  -17.988;  -35.003;    0.000;17.01500
 754.91;  -81.988;  -53.003;    0.000;-28.98508
 755.48;   -9.988;  -28.003;    0.000;18.01485
 756.06;  -28.988;  -33.003;    0.000; 4.01478
 756.63;   30.012;  -34.003;    0.000;64.01471
 757.20;  -66.988;   22.997;    0.000;-89.98536
 757.78; -112.988;  -39.003;    0.000;-73.98543
 758.35;  -90.988;  -50.003;    0.000;-40.98550
 758.92;  -16.988;  -13.003;    0.000;-3.98558
 759.50;   -4.989;  -51.003;    0.000;46.01435
 760.07;  -19.989;  -65.003;    0.000;45.01428
 760.64;  -73.989;  -53.003;    0.000;-20.98579
 761.21;   20.011;  -57.003;    0.000;77.01414
 761.79; -103.989;  -40.003;    0.000;-63.98593
 762.36;  -88.989;  -30.003;    0.000;-58.98600
 762.93;  -55.989;  -86.003;    0.000;30.01392
 763.50;  -74.989;  -41.003;    0.000;-33.98615
 764.08;  -35.989;  -70.003;    0.000;34.01378
 764.65;  -53.989;   -0.003;    0.000;-53.98629
 765.22;  -95.989;   14.997;    0.000;-110.98636
 765.79;  -89.989;  -25.003;    0.000;-64.98643
 766.37;  -60.989;  -44.003;    0.000;-16.98650
 766.94;  -33.989;  -19.003;    0.000;-14.98658
 767.51;  -56.989;  -54.003;    0.000;-2.98665
 768.08;  -17.989;  -33.003;    0.000;15.01328
 768.66;  -20.989;   -6.003;    0.000;-14.98679
 769.23;  -16.989;  -60.003;    0.000;43.01314
 769.80;  -46.990;  -59.003;    0.000;12.01307
 770.37;  -58.990;   -9.003;    0.000;-49.98700
 770.94;  -66.990;  -18.003;    0.000;-48.98708
 771.52;  -24.990;  -39.003;    0.000;14.01285
 772.09;  -15.990;    3.997;    0.000;-19.98722
 772.66;   -7.990;    1.997;    0.000;-9.98729
 773.23;  -50.990;  -60.003;    0.000; 9.01264
 773.80;   14.010;    6.997;    0.000; 7.01257
 774.38;  -33.990;  -37.002;    0.000; 3.01250
 774.95;   22.010;  -12.002;    0.000;34.01242
 775.52;  -29.990;  -67.002;    0.000;37.01235
 776.09;    6.010;  -28.002;    0.000;34.01228
 776.66;  -36.990;    1.998;    0.000;-38.98779
 777.24;  -42.990;  -47.002;    0.000; 4.01214
 777.81;   17.010;  -48.002;    0.000;65.01207
 778.38;  -34.990;  -74.002;    0.000;39.01200
 778.95;  -36.990;  -98.002;    0.000;61.01192
 779.52;  -54.991;  -25.002;    0.000;-29.98815
 780.09;  -24.991;   -3.002;    0.000;-21.98822
 780.66;  -23.991;  -20.002;    0.000;-3.98829
 781.24;  -84.991;  -33.002;    0.000;-51.98836
 781.81;  -86.991;  -71.002;    0.000;-15.98843
 782.38;  -58.991;  -30.002;    0.000;-28.98850
 782.95;  -32.991;    9.998;    0.000;-42.98858
 783.52;  -57.991;  -16.002;    0.000;-41.98865
 784.09;  -24.991;  -19.002;    0.000;-5.98872
 784.66;  -26.991;  -21.002;    0.000;-5.98879
 785.23;  -91.991;  -21.002;    0.000;-70.98886
 785.80;  -77.991;  -23.002;    0.000;-54.98893
 786.38;  -14.991;  -44.002;    0.000;29.01100
 786.95;  -23.991;  -37.002;    0.000;13.01092
 787.52;   -9.991;  -65.002;    0.000;55.01085
 788.09;  -61.991;  -26.002;    0.000;-35.98922
 788.66;  -60.991;  -50.002;    0.000;-10.98929
 789.23;  -36.991;   -0.002;    0.000;-36.98936
 789.80;  -55.992;  -35.002;    0.000;-20.98943
 790.37;  -50.992;  -74.002;    0.000;23.01050
 790.94;   -8.992;  -21.002;    0.000;12.01043
 791.51;  -45.992;  -49.002;    0.000; 3.01035
 792.08;  -62.992;  -28.002;    0.000;-34.98972
 792.65;  -69.992;  -51.002;    0.000;-18.98979
 793.22;  -57.992;  -79.002;    0.000;21.01014
 793.80;  -49.992;  -56.002;    0.000; 6.01007
 794.37;  -36.992;  -67.002;    0.000;30.01000
 794.94;  -68.992;  -64.002;    0.000;-4.99007
 795.51;  -86.992;  -36.002;    0.000;-50.99015
 796.08;   -0.992;  -11.002;    0.000;10.00978
 796.65;  -52.992;  -36.002;    0.000;-16.99029
 797.22;  -81.992;  -17.002;    0.000;-64.99036
 797.79;  -14.992;  -56.002;    0.000;41.00957
 798.36;  -26.992;  -20.002;    0.000;-6.99050
 798.93;  -58.992;  -30.002;    0.000;-28.99057
 799.50;  -45.993;   -0.002;    0.000;-45.99065
 800.07; -112.993;  -73.002;    0.000;-39.99072
 800.64;  -92.993; -104.002;    0.000;11.00921
 801.21;  -35.993;  -16.002;    0.000;-19.99086
 801.78;  -72.993;   -5.002;    0.000;-67.99093
 802.35;  -42.993;  -28.002;    0.000;-14.99100
 802.92;  -65.993;   -6.002;    0.000;-59.99107
 803.49;  -62.993;   -8.002;    0.000;-54.99115
 804.06;  -59.993;  -58.002;    0.000;-1.99122
 804.63;  -54.993;  -35.002;    0.000;-19.99129
 805.20;  -46.993;  -66.002;    0.000;19.00864
 805.77;  -52.993;   -9.002;    0.000;-43.99143
 806.34;  -80.993;  -18.002;    0.000;-62.99150
 806.91;  -33.993;  -51.002;    0.000;17.00843
 807.47;  -72.993;  -59.002;    0.000;-13.99165
 808.04;  -47.993;  -61.002;    0.000;13.00828
 808.61;  -55.993;  -56.002;    0.000; 0.00821
 809.18;  -54.993;  -21.002;    0.000;-33.99186
 809.75;  -28.994;  -47.002;    0.000;18.00807
 810.32;  -76.994;  -40.002;    0.000;-36.99200
 810.89;  -49.994;  -34.002;    0.000;-15.99207
 811.46; -103.994;  -88.002;    0.000;-15.99215
 812.03; -100.994;  -38.002;    0.000;-62.99222
 812.60;  -84.994;   -0.002;    0.000;-84.99229
 813.17;  -77.994;  -36.002;    0.000;-41.99236
 813.74;  -50.994;  -29.002;    0.000;-21.99243
 814.31;  -27.994;  -80.001;    0.000;52.00750
 814.87;  -60.994;  -37.001;    0.000;-23.99257
 815.44;  -47.994;  -84.001;    0.000;36.00735
 816.01;  -28.994;  -58.001;    0.000;29.00728
 816.58;  -66.994;  -84.001;    0.000;17.00721
 817.15;    8.006;  -32.001;    0.000;40.00714
 817.72;  -75.994;  -48.001;    0.000;-27.99293
 818.29;  -55.994;  -42.001;    0.000;-13.99300
 818.86;  -37.994;  -73.001;    0.000;35.00693
 819.42;  -93.995;  -16.001;    0.000;-77.99315
 819.99;   20.005;  -34.001;    0.000;54.00678
 820.56;  -53.995;  -42.001;    0.000;-11.99329
 821.13;  -39.995;  -67.001;    0.000;27.00664
 821.70;  -96.995;  -13.001;    0.000;-83.99343
 822.27;  -34.995;  -62.001;    0.000;27.00650
 822.84;  -79.995;  -21.001;    0.000;-58.99357
 823.40; -112.995;  -39.001;    0.000;-73.99364
 823.97;   34.005;   47.999;    0.000;-13.99372
 824.54;  -59.995;  -40.001;    0.000;-19.99379
 825.11;  -85.995;  -23.001;    0.000;-62.99386
 825.68;    8.005;  -54.001;    0.000;62.00607
 826.24;  -76.995;   -6.001;    0.000;-70.99400
 826.81;  -84.995;  -86.001;    0.000; 1.00593
 827.38;  -37.995;    7.999;    0.000;-45.99414
 827.95;  -86.995;  -93.001;    0.000; 6.00578
 828.52;  -63.995;  -19.001;    0.000;-44.99429
 829.08;   22.005;  -49.001;    0.000;71.00564
 829.65;  -56.996;  -65.001;    0.000; 8.00557
 830.22;  -28.996;  -32.001;    0.000; 3.00550
 830.79;  -51.996;  -43.001;    0.000;-8.99457
 831.36;  -87.996;  -27.001;    0.000;-60.99464
 831.92;   73.004;  -13.001;    0.000;86.00528
 832.49;  -73.996;   -6.001;    0.000;-67.99479
 833.06;  -24.996;   -4.001;    0.000;-20.99486
 833.63;  -67.996;  -45.001;    0.000;-22.99493
 834.19;  -35.996;   -2.001;    0.000;-33.99500
 834.76;  -66.996;  -42.001;    0.000;-24.99507
 835.33; -112.996;  -21.001;    0.000;-91.99514
 835.90; -103.996;  -58.001;    0.000;-45.99522
 836.46;  -65.996;   24.999;    0.000;-90.99529
 837.03;  -21.996;  -17.001;    0.000;-4.99536
 837.60;  -79.996;  -59.001;    0.000;-20.99543
 838.17;  -11.996;  -24.001;    0.000;12.00450
 838.73;  -35.996;  -35.001;    0.000;-0.99557
 839.30;  -52.997;  -77.001;    0.000;24.00436
 839.87;  -26.997;  -71.001;    0.000;44.00428
 840.43;  -13.997;  -49.001;    0.000;35.00421
 841.00;  -57.997;  -36.001;    0.000;-21.99586
 841.57;  -33.997;  -83.001;    0.000;49.00407
 842.14;  -56.997;    0.999;    0.000;-57.99600
 842.70;   -6.997;  -47.001;    0.000;40.00393
 843.27;  -58.997;  -45.001;    0.000;-13.99614
 843.84; -104.997;   -2.001;    0.000;-102.99622
 844.40;  -44.997;  -12.001;    0.000;-32.99629
 844.97;  -35.997;   -9.001;    0.000;-26.99636
 845.54;  -27.997;  -36.001;    0.000; 8.00357
 846.10;  -34.997;  -36.001;    0.000; 1.00350
 846.67;  -90.997;  -29.001;    0.000;-61.99657
 847.24;  -29.997; -100.001;    0.000;70.00336
 847.80;  -71.997;  -67.001;    0.000;-4.99672
 848.37;  -85.997;  -94.001;    0.000; 8.00321
 848.94;   -1.997;  -16.001;    0.000;14.00314
 849.50;   25.002;  -44.001;    0.000;69.00307
 850.07;  -36.998;  -36.001;    0.000;-0.99700
 850.63;  -11.998;  -47.001;    0.000;35.00293
 851.20;  -98.998;  -21.001;    0.000;-77.99714
 851.77;  -62.998;  -42.001;    0.000;-20.99722
 852.33;   38.002;   -2.001;    0.000;40.00271
 852.90; -119.998;  -30.001;    0.000;-89.99736
 853.47;   12.002;  -86.001;    0.000;98.00257
 854.03;  -56.998;  -36.000;    0.000;-20.99750
 854.60;    6.002;  -41.000;    0.000;47.00243
 855.16;  -54.998;  -85.000;    0.000;30.00236
 855.73;  -47.998;  -17.000;    0.000;-30.99772
 856.30;  -15.998;   -1.000;    0.000;-14.99779
 856.86;  -48.998;  -40.000;    0.000;-8.99786
 857.43;  -42.998;  -44.000;    0.000; 1.00207
 857.99;  -77.998;  -35.000;    0.000;-42.99800
 858.56;  -89.998;  -38.000;    0.000;-51.99807
 859.12;  -37.999;    1.000;    0.000;-38.99814
 859.69;  -51.999;  -34.000;    0.000;-17.99821
 860.26;  -63.999;  -34.000;    0.000;-29.99829
 860.82;  -52.999;  -67.000;    0.000;14.00164
 861.39;  -16.999;  -21.000;    0.000; 4.00157
 861.95;  -56.999;  -55.000;    0.000;-1.99850
 862.52;  -45.999;  -43.000;    0.000;-2.99857
 863.08; -119.999;  -21.000;    0.000;-98.99864
 863.65;  -38.999;  -16.000;    0.000;-22.99871
 864.21;  -37.999;  -48.000;    0.000;10.00121
 864.78;   21.001;  -18.000;    0.000;39.00114
 865.34;  -10.999;  -35.000;    0.000;24.00107
 865.91;  -55.999;   31.000;    0.000;-86.99900
 866.47;  -76.999;  -48.000;    0.000;-28.99907
 867.04;  -50.999;  -42.000;    0.000;-8.99914
 867.61; -116.999; -101.000;    0.000;-15.99921
 868.17;  -49.999;  -36.000;    0.000;-13.99929
 868.74;  -75.999;  -76.000;    0.000; 0.00064
 869.30;  -77.000;  -18.000;    0.000;-58.99943
 869.86;  -69.000; -133.000;    0.000;64.00050
 870.43;  -67.000;  -97.000;    0.000;30.00043
 870.99;  -67.000;  -20.000;    0.000;-46.99964
 871.56;  -62.000;  -66.000;    0.000; 4.00029
 872.12;  -44.000;  -61.000;    0.000;17.00021
 872.69;    5.000; -101.000;    0.000;106.00014
 873.25;  -41.000;  -68.000;    0.000;27.00007
 873.82;  -36.000;   -2.000;    0.000;-34.00000
 874.38;  -99.000;  -95.000;    0.000;-4.00000
 874.95;  -32.000;  -55.000;    0.000;23.00000
 875.51;  -65.000;  -48.000;    0.000;-17.00000
 876.08;  -13.000;  -56.000;    0.000;43.00000
 876.64;  -90.000;  -83.000;    0.000;-7.00000
 877.20;  -30.000;  -28.000;    0.000;-2.00000
 877.77;  -48.000;  -61.000;    0.000;13.00000
 878.33; -115.000;  -80.000;    0.000;-35.00000
 878.90;  -86.000;  -72.000;    0.000;-14.00000
 879.46;  -47.000;  -30.000;    0.000;-17.00000
 880.03;    9.000;  -20.000;    0.000;29.00000
 880.59;  -72.000;   19.000;    0.000;-91.00000
 881.15;  -35.000;  -44.000;    0.000; 9.00000
 881.72;  -99.000;  -56.000;    0.000;-43.00000
 882.28;  -33.000;  -67.000;    0.000;34.00000
 882.85;  -66.000;  -68.000;    0.000; 2.00000
 883.41; -102.000;  -68.000;    0.000;-34.00000
 883.97;   88.000;  -36.000;    0.000;124.00000
 884.54;  -71.000;  -48.000;    0.000;-23.00000
 885.10;  -55.000;  -12.000;    0.000;-43.00000
 885.66;    3.000;  -48.000;    0.000;51.00000
 886.23;  -69.000;  -48.000;    0.000;-21.00000
 886.79;  -56.000;  -50.000;    0.000;-6.00000
 887.36;  -58.000;  -54.000;    0.000;-4.00000
 887.92;  -35.000;  -84.000;    0.000;49.00000
 888.48;  -65.000;  -28.000;    0.000;-37.00000
 889.05;  -64.000;  -12.000;    0.000;-52.00000
 889.61;  -72.000;  -61.000;    0.000;-11.00000
 890.17;  -33.000;  -67.000;    0.000;34.00000
 890.74;  -52.000;  -12.000;    0.000;-40.00000
 891.30;  -30.000;  -46.000;    0.000;16.00000
 891.86;  -82.000;  -72.000;    0.000;-10.00000
 892.43;  -32.000;  -58.000;    0.000;26.00000
 892.99;  -19.000;  -16.000;    0.000;-3.00000
 893.55;  -44.000;  -64.000;    0.000;20.00000
 894.11;  -31.000;  -41.000;    0.000;10.00000
 894.68; -103.000; -114.000;    0.000;11.00000
 895.24;   10.000;    7.000;    0.000; 3.00000
 895.80;  -85.000;  -46.000;    0.000;-39.00000
 896.37;  -66.000;   12.000;    0.000;-78.00000
 896.93;  -67.000;  -74.000;    0.000; 7.00000
 897.49;  -40.000; -105.000;    0.000;65.00000
 898.05;  -43.000;  -26.000;    0.000;-17.00000
 898.62;  -33.000;    7.000;    0.000;-40.00000
 899.18;  -59.000;  -32.000;    0.000;-27.00000
 899.74;   24.000;  -47.000;    0.000;71.00000
 900.31;  -42.000;  -66.000;    0.000;24.00000
 900.87;  -60.000;  -71.000;    0.000;11.00000
 901.43; -104.000;  -92.000;    0.000;-12.00000
 901.99;  -96.000;  -44.000;    0.000;-52.00000
 902.56;  -36.000;  -61.000;    0.000;25.00000
 903.12;   15.000;  -17.000;    0.000;32.00000
 903.68;  -76.000;  -87.000;    0.000;11.00000
 904.24; -124.000;  -24.000;    0.000;-100.00000
 904.80;  -74.000;  -88.000;    0.000;14.00000
 905.37;  -88.000;  -23.000;    0.000;-65.00000
 905.93;    0.000; -110.000;    0.000;110.00000
 906.49;  -42.000;  -42.000;    0.000; 0.00000
 907.05;  -36.000;  -68.000;    0.000;32.00000
 907.61;  -23.000;  -76.000;    0.000;53.00000
 908.18;   -2.000;   17.000;    0.000;-19.00000
 908.74;  -38.000;  -35.000;    0.000;-3.00000
 909.30;  -51.000;    1.000;    0.000;-52.00000
 909.86; -118.000;  -62.000;    0.000;-56.00000
 910.42;  -83.000;  -28.000;    0.000;-55.00000
 910.99;   -5.000;  -54.000;    0.000;49.00000
 911.55;  -49.000;  -13.000;    0.000;-36.00000
 912.11;  -60.000;    8.000;    0.000;-68.00000
 912.67;  -67.000;  -43.000;    0.000;-24.00000
 913.23;  -32.000;  -22.000;    0.000;-10.00000
 913.79;  -70.000;  -39.000;    0.000;-31.00000
 914.36;   -7.000;  -31.000;    0.000;24.00000
 914.92;  -70.000;  -98.000;    0.000;28.00000
 915.48;  -76.000;  -36.000;    0.000;-40.00000
 916.04;  -22.000;  -13.000;    0.000;-9.00000
 916.60;  -41.000;   -6.000;    0.000;-35.00000
 917.16;  -27.000;  -29.000;    0.000; 2.00000
 917.72; -113.000;  -59.000;    0.000;-54.00000
 918.28; -106.000;  -44.000;    0.000;-62.00000
 918.85;  -53.000;  -27.000;    0.000;-26.00000
 919.41;  -42.000;  -79.000;    0.000;37.00000
 919.97;  -66.000;  -31.000;    0.000;-35.00000
 920.53;  -62.000;  -27.000;    0.000;-35.00000
 921.09;   21.000;  -14.000;    0.000;35.00000
 921.65;  -80.000;  -21.000;    0.000;-59.00000
 922.21;  -69.000;  -34.000;    0.000;-35.00000
 922.77;  -55.000;  -75.000;    0.000;20.00000
 923.33;  -93.000;  -22.000;    0.000;-71.00000
 923.89;  -57.000;  -73.000;    0.000;16.00000
 924.45;  -76.000;  -37.000;    0.000;-39.00000
 925.01;  -50.000;  -43.000;    0.000;-7.00000
 925.58;  -54.000;   -8.000;    0.000;-46.00000
 926.14; -108.000;  -77.000;    0.000;-31.00000
 926.70; -107.000;   -7.000;    0.000;-100.00000
 927.26;  -36.000;  -26.000;    0.000;-10.00000
 927.82;  -87.000;  -52.000;    0.000;-35.00000
 928.38; -105.000;  -26.000;    0.000;-79.00000
 928.94;  -70.000;  -53.000;    0.000;-17.00000
 929.50;  -65.000;  -83.000;    0.000;18.00000
 930.06;  -86.000;  -61.000;    0.000;-25.00000
 930.62;  -75.000;    8.000;    0.000;-83.00000
 931.18;   -9.000;  -33.000;    0.000;24.00000
 931.74;  -79.000;  -32.000;    0.000;-47.00000
 932.30;  -49.000;  -30.000;    0.000;-19.00000
 932.86;  -83.000;  -48.000;    0.000;-35.00000
 933.42;  -68.000;   18.000;    0.000;-86.00000
 933.98;  -20.000; -110.000;    0.000;90.00000
 934.54;  -62.000;    2.000;    0.000;-64.00000
 935.10;   -8.000;  -43.000;    0.000;35.00000
 935.66;  -52.000;  -60.000;    0.000; 8.00000
 936.22;  -16.000; -113.000;    0.000;97.00000
 936.78;  -72.000;  -65.000;    0.000;-7.00000
 937.34;  -55.000;  -55.000;    0.000; 0.00000
 937.90;  -32.000;   26.000;    0.000;-58.00000
 938.46;  -86.000;  -36.000;    0.000;-50.00000
 939.02;  -32.000;  -55.000;    0.000;23.00000
 939.58;  -64.000;  -88.000;    0.000;24.00000
 940.14;  -54.000;    2.000;    0.000;-56.00000
 940.70;  -14.000;  -41.000;    0.000;27.00000
 941.25;  -51.000;  -54.000;    0.000; 3.00000
 941.81;  -90.000;  -41.000;    0.000;-49.00000
 942.37;  -32.000;  -70.000;    0.000;38.00000
 942.93;  -71.000;  -69.000;    0.000;-2.00000
 943.49;  -95.000;   31.000;    0.000;-126.00000
 944.05;  -95.000;  -69.000;    0.000;-26.00000
 944.61;   11.000;  -51.000;    0.000;62.00000
 945.17; -110.000;  -73.000;    0.000;-37.00000
 945.73;  -12.000;  -47.000;    0.000;35.00000
 946.29; -121.000;  -98.000;    0.000;-23.00000
 946.85; -118.000;  -47.000;    0.000;-71.00000
 947.40; -102.000;  -31.000;    0.000;-71.00000
 947.96;  -61.000;  -39.000;    0.000;-22.00000
 948.52; -108.000;  -49.000;    0.000;-59.00000
 949.08;  -77.000;  -37.000;    0.000;-40.00000
 949.64;   27.000;  -61.000;    0.000;88.00000
 950.20;  -13.000;  -44.000;    0.000;31.00000
 950.76;   48.000;  -25.000;    0.000;73.00000
 951.32;  -40.000;  -39.000;    0.000;-1.00000
 951.87;  -62.000; -100.000;    0.000;38.00000
 952.43;  -33.000;  -31.000;    0.000;-2.00000
 952.99;  -32.000;  -70.000;    0.000;38.00000
 953.55;  -74.000;  -15.000;    0.000;-59.00000
 954.11;  -94.000;  -49.000;    0.000;-45.00000
 954.67;  -83.000;   32.000;    0.000;-115.00000
 955.22; -112.000;  -69.000;    0.000;-43.00000
 955.78;   -8.000;  -15.000;    0.000; 7.00000
 956.34;  -49.000;  -93.000;    0.000;44.00000
 956.90;  -53.000;  -13.000;    0.000;-40.00000
 957.46;  -53.000;  -96.000;    0.000;43.00000
 958.01;  -24.000;   -9.000;    0.000;-15.00000
 958.57;  -36.000;  -97.000;    0.000;61.00000
 959.13;  -57.000;   -1.000;    0.000;-56.00000
 959.69;  -68.000;  -72.000;    0.000; 4.00000
 960.25;  -51.000;    4.000;    0.000;-55.00000
 960.80;  -56.000;  -58.000;    0.000; 2.00000
 961.36;  -70.000;  -69.000;    0.000;-1.00000
 961.92;  -76.000;  -70.000;    0.000;-6.00000
 962.48; -100.000;   -6.000;    0.000;-94.00000
 963.03;  -33.000;  -28.000;    0.000;-5.00000
 963.59;   -2.000;  -53.000;    0.000;51.00000
 964.15;  -27.000;  -42.000;    0.000;15.00000
 964.71;  -80.000;  -17.000;    0.000;-63.00000
 965.26;  -62.000;   -5.000;    0.000;-57.00000
 965.82;  -49.000;  -54.000;    0.000; 5.00000
 966.38; -103.000;  -74.000;    0.000;-29.00000
 966.94;  -94.000;  -19.000;    0.000;-75.00000
 967.49;  -68.000;  -70.000;    0.000; 2.00000
 968.05; -111.000;  -13.000;    0.000;-98.00000
 968.61;  -50.000;  -23.000;    0.000;-27.00000
 969.17; -116.000;  -35.000;    0.000;-81.00000
 969.72;  -47.000;  -67.000;    0.000;20.00000
 970.28;  -66.000;  -67.000;    0.000; 1.00000
 970.84;  -89.000;   -4.000;    0.000;-85.00000
 971.39;  -27.000;   -4.000;    0.000;-23.00000
 971.95; -102.000;  -81.000;    0.000;-21.00000
 972.51; -134.000;  -30.000;    0.000;-104.00000
 973.06;  -13.000;   -7.000;    0.000;-6.00000
 973.62;  -75.000;  -12.000;    0.000;-63.00000
 974.18;  -63.000;  -52.000;    0.000;-11.00000
 974.73;  -45.000;   -9.000;    0.000;-36.00000
 975.29;  -13.000;  -33.000;    0.000;20.00000
 975.85;  -87.000;  -86.000;    0.000;-1.00000
 976.40;  -33.000;  -58.000;    0.000;25.00000
 976.96;  -94.000;  -48.000;    0.000;-46.00000
 977.52;  -34.000;  -56.000;    0.000;22.00000
 978.07;  -13.000;  -29.000;    0.000;16.00000
 978.63;  -29.000;  -23.000;    0.000;-6.00000
 979.19;  -61.000;  -37.000;    0.000;-24.00000
 979.74;  -33.000;  -50.000;    0.000;17.00000
 980.30;  -55.000;  -58.000;    0.000; 3.00000
 980.85;  -54.000;  -52.000;    0.000;-2.00000
 981.41;  -97.000;  -44.000;    0.000;-53.00000
 981.97;  -28.000;  -54.000;    0.000;26.00000
 982.52;  -65.000;  -39.000;    0.000;-26.00000
 983.08;  -27.000;  -35.000;    0.000; 8.00000
 983.63;  -63.000;  -16.000;    0.000;-47.00000
 984.19;  -18.000;  -54.000;    0.000;36.00000
 984.75;  -88.000;  -51.000;    0.000;-37.00000
 985.30; -110.000;  -69.000;    0.000;-41.00000
 985.86;  -52.000;  -46.000;    0.000;-6.00000
 986.41;  -67.000;  -32.000;    0.000;-35.00000
 986.97;  -79.000;  -13.000;    0.000;-66.00000
 987.52;  -98.000;  -51.000;    0.000;-47.00000
 988.08;  -99.000;  -51.000;    0.000;-48.00000
 988.64; -100.000;  -43.000;    0.000;-57.00000
 989.19; -100.000;  -42.000;    0.000;-58.00000
 989.75;   11.000;  -40.000;    0.000;51.00000
 990.30; -147.000;  -14.000;    0.000;-133.00000
 990.86;  -77.000; -125.000;    0.000;48.00000
 991.41;  -98.000;  -16.000;    0.000;-82.00000
 991.97;  -52.000;   -3.000;    0.000;-49.00000
 992.52;  -21.000;  -58.000;    0.000;37.00000
 993.08;  -63.000; -101.000;    0.000;38.00000
 993.63;  -87.000;  -19.000;    0.000;-68.00000
 994.19;  -23.000;  -22.000;    0.000;-1.00000
 994.74;  -78.000;  -66.000;    0.000;-12.00000
 995.30;  -90.000;  -17.000;    0.000;-73.00000
 995.85;  -46.000;    1.000;    0.000;-47.00000
 996.41;  -95.000;  -49.000;    0.000;-46.00000
 996.96;  -48.000;  -35.000;    0.000;-13.00000
 997.52;  -13.000;  -95.000;    0.000;82.00000
 998.07;  -43.000;  -45.000;    0.000; 2.00000
 998.63;  -33.000; -103.000;    0.000;70.00000
 999.18;    8.000;  -51.000;    0.000;59.00000
 999.74;   -8.000;  -19.000;    0.000;11.00000
1000.29;    1.000;  -30.000;    0.000;31.00000
1000.85;  -27.000;  -30.000;    0.000; 3.00000
1001.40;  -55.000;   34.000;    0.000;-89.00000
1001.96;  -10.000;  -39.000;    0.000;29.00000
1002.51;  -90.000;  -50.000;    0.000;-40.00000
1003.06; -111.000;  -73.000;    0.000;-38.00000
1003.62;  -16.000;  -29.000;    0.000;13.00000
1004.17; -107.000;   -3.000;    0.000;-104.00000
1004.73;  -63.000;   12.000;    0.000;-75.00000
1005.28;   33.000;  -83.000;    0.000;116.00000
1005.83;  -82.000;  -39.000;    0.000;-43.00000
1006.39;  -62.000;  -26.000;    0.000;-36.00000
1006.94;  -46.000;  -12.000;    0.000;-34.00000
1007.50;  -17.000;  -18.000;    0.000; 1.00000
1008.05;  -90.000;  -68.000;    0.000;-22.00000
1008.60;  -51.000;  -25.000;    0.000;-26.00000
1009.16;  -75.000;  -49.000;    0.000;-26.00000
1009.71;   -1.000;  -68.000;    0.000;67.00000
1010.27;  -55.000;   41.000;    0.000;-96.00000
1010.82;  -79.000;    4.000;    0.000;-83.00000
1011.37;  -30.000;   13.000;    0.000;-43.00000
1011.93;  -59.000;  -82.000;    0.000;23.00000
1012.48;  -25.000;  -46.000;    0.000;21.00000
1013.03;  -69.000;  -37.000;    0.000;-32.00000
1013.59;  -38.000;  -10.000;    0.000;-28.00000
1014.14;  -65.000;  -43.000;    0.000;-22.00000
1014.69;  -66.000;  -65.000;    0.000;-1.00000
1015.25;   16.000;  -21.000;    0.000;37.00000
1015.80;  -31.000;   39.000;    0.000;-70.00000
1016.35;  -67.000;  -39.000;    0.000;-28.00000
1016.91; -107.000;  -34.000;    0.000;-73.00000
1017.46;  -49.000;  -62.000;    0.000;13.00000
1018.01;  -58.000;  -27.000;    0.000;-31.00000
1018.57; -105.000;  -52.000;    0.000;-53.00000
1019.12;  -58.000;  -48.000;    0.000;-10.00000
1019.67;   -9.000;  -25.000;    0.000;16.00000
1020.23;   -1.000;  -23.000;    0.000;22.00000
1020.78;  -79.000;  -51.000;    0.000;-28.00000
1021.33;  -29.000;  -58.000;    0.000;29.00000
1021.88;   11.000;  -70.000;    0.000;81.00000
1022.44;   25.000;   -1.000;    0.000;26.00000
1022.99;  -44.000;  -49.000;    0.000; 5.00000
1023.54; -104.000;  -86.000;    0.000;-18.00000
1024.09;  -12.000;  -97.000;    0.000;85.00000
1024.65;  -93.000;  -43.000;    0.000;-50.00000
1025.20; -101.000;  -54.000;    0.000;-47.00000
1025.75;  -50.000;    7.000;    0.000;-57.00000
1026.30;  -52.000;  -31.000;    0.000;-21.00000
1026.86;  -80.000;    9.000;    0.000;-89.00000
1027.41;  -20.000;  -45.000;    0.000;25.00000
1027.96;  -73.000;   -9.000;    0.000;-64.00000
1028.51;  -39.000;  -38.000;    0.000;-1.00000
1029.07;  -58.000;    4.000;    0.000;-62.00000
1029.62;  -70.000;  -39.000;    0.000;-31.00000
1030.17;  -70.000;  -51.000;    0.000;-19.00000
1030.72;  -74.000; -100.000;    0.000;26.00000
1031.27;  -80.000;    5.000;    0.000;-85.00000
1031.83;  -33.000;  -62.000;    0.000;29.00000
1032.38;    5.000;  -54.000;    0.000;59.00000
1032.93;  -55.000;    3.000;    0.000;-58.00000
1033.48;  -91.000;   -8.000;    0.000;-83.00000
1034.03;  -40.000;  -37.000;    0.000;-3.00000
1034.58;   21.000;   -1.000;    0.000;22.00000
1035.14;  -81.000;  -77.000;    0.000;-4.00000
1035.69;  -66.000;  -33.000;    0.000;-33.00000
1036.24; -147.000;  -44.000;    0.000;-103.00000
1036.79;  -36.000;   -5.000;    0.000;-31.00000
1037.34; -123.000;  -42.000;    0.000;-81.00000
1037.89;  -71.000;  -19.000;    0.000;-52.00000
1038.45;  -69.000;  -80.000;    0.000;11.00000
1039.00;  -46.000;  -28.000;    0.000;-18.00000
1039.55; -108.000;  -32.000;    0.000;-76.00000
1040.10;  -64.000;    3.000;    0.000;-67.00000
1040.65;   -1.000;  -49.000;    0.000;48.00000
1041.20;  -91.000;  -26.000;    0.000;-65.00000
1041.75;  -51.000;  -38.000;    0.000;-13.00000
1042.30;  -38.000;  -44.000;    0.000; 6.00000
1042.85;  -86.000;  -50.000;    0.000;-36.00000
1043.41;   21.000;  -31.000;    0.000;52.00000
1043.96;  -73.000;  -61.000;    0.000;-12.00000
1044.51;  -48.000;  -35.000;    0.000;-13.00000
1045.06;  -41.000;  -26.000;    0.000;-15.00000
1045.61;  -89.000;    5.000;    0.000;-94.00000
1046.16;  -63.000;   -9.000;    0.000;-54.00000
1046.71;  -43.000;  -39.000;    0.000;-4.00000
1047.26;  -26.000;  -71.000;    0.000;45.00000
1047.81; -103.000;  -39.000;    0.000;-64.00000
1048.36;  -92.000;  -77.000;    0.000;-15.00000
1048.91;  402.000;   13.000;    0.000;389.00000
1049.46;   41.000;  -39.000;    0.000;80.00000
1050.01;  -59.000;  -10.000;    0.000;-49.00000
1050.56;  -67.000;  -97.000;    0.000;30.00000
1051.11;  -26.000;  -27.000;    0.000; 1.00000
1051.66;  -99.000; -135.000;    0.000;36.00000
1052.21;  -34.000;  -16.000;    0.000;-18.00000
1052.76;  -69.000;  -11.000;    0.000;-58.00000
1053.31; -110.000;  -79.000;    0.000;-31.00000
1053.86;  -61.000;  -55.000;    0.000;-6.00000
1054.41;  -80.000;  -50.000;    0.000;-30.00000
1054.96;  -97.000;  -18.000;    0.000;-79.00000
1055.51;   77.000;  -16.000;    0.000;93.00000
1056.06;  -53.000;  -43.000;    0.000;-10.00000
1056.61;   29.000;  -16.000;    0.000;45.00000
1057.16;  -50.000;  -49.000;    0.000;-1.00000
1057.71;  -23.000;  -45.000;    0.000;22.00000
1058.26; -109.000;  -94.000;    0.000;-15.00000
1058.81;  -53.000; -120.000;    0.000;67.00000
1059.36; -115.000;  -36.000;    0.000;-79.00000
1059.91;  -51.000;   -5.000;    0.000;-46.00000
1060.46;  -95.000;  -58.000;    0.000;-37.00000
1061.01;  -41.000;  -35.000;    0.000;-6.00000
1061.56;  -92.000;  -92.000;    0.000; 0.00000
1062.11;  -46.000;  -36.000;    0.000;-10.00000
1062.66;  -51.000;  -86.000;    0.000;35.00000
1063.21;  -82.000;  -43.000;    0.000;-39.00000
1063.76; -108.000;  -23.000;    0.000;-85.00000
1064.31;  -38.000;  -38.000;    0.000; 0.00000
1064.86;  -29.000;   -4.000;    0.000;-25.00000
1065.40;    2.000;  -23.000;    0.000;25.00000
1065.95;  -45.000;  -73.000;    0.000;28.00000
1066.50; -102.000;   -2.000;    0.000;-100.00000
1067.05;  -49.000;  -77.000;    0.000;28.00000
1067.60;   35.000;  -72.000;    0.000;107.00000
1068.15;  -63.000;  -91.000;    0.000;28.00000
1068.70; -193.000;  -31.000;    0.000;-162.00000
1069.25;  -61.000;  -79.000;    0.000;18.00000
1069.79;  -73.000;  -17.000;    0.000;-56.00000
1070.34; -102.000;  -40.000;    0.000;-62.00000
1070.89;  -14.000;  -38.000;    0.000;24.00000
1071.44;  -24.000;  -81.000;    0.000;57.00000
1071.99;   15.000;  -22.000;    0.000;37.00000
1072.54; -102.000;  -28.000;    0.000;-74.00000
1073.09;  -53.000;  -74.000;    0.000;21.00000
1073.63;   -7.000;  -89.000;    0.000;82.00000
1074.18;  -34.000;  -79.000;    0.000;45.00000
1074.73; -126.000;  -53.000;    0.000;-73.00000
1075.28;   25.000;  -26.000;    0.000;51.00000
1075.83;  -52.000;   15.000;    0.000;-67.00000
1076.38;  -50.000;  -33.000;    0.000;-17.00000
1076.92;  -45.000;  -51.000;    0.000; 6.00000
1077.47;  -35.000;  -23.000;    0.000;-12.00000
1078.02;   23.000;  -49.000;    0.000;72.00000
1078.57;  -52.000;  -67.000;    0.000;15.00000
1079.11;  -61.000;  -42.000;    0.000;-19.00000
1079.66;  -83.000;  -26.000;    0.000;-57.00000
1080.21;  -55.000;  -95.000;    0.000;40.00000
1080.76;    5.000;  -45.000;    0.000;50.00000
1081.31;  -92.000;  -69.000;    0.000;-23.00000
1081.85;  -93.000;  -45.000;    0.000;-48.00000
1082.40;  -87.000;  -43.000;    0.000;-44.00000
1082.95;   -8.000;  -10.000;    0.000; 2.00000
1083.50;  -45.000;  -24.000;    0.000;-21.00000
1084.04;  -66.000;  -31.000;    0.000;-35.00000
1084.59;  -54.000;  -36.000;    0.000;-18.00000
1085.14; -108.000;  -16.000;    0.000;-92.00000
1085.69;  -74.000;  -45.000;    0.000;-29.00000
1086.23;  -85.000;  -26.000;    0.000;-59.00000
1086.78;  -11.000;  -65.000;    0.000;54.00000
1087.33;  -35.000;  -40.000;    0.000; 5.00000
1087.87; -112.000;  -78.000;    0.000;-34.00000
1088.42;  -33.000;  -23.000;    0.000;-10.00000
1088.97;  -62.000;  -75.000;    0.000;13.00000
1089.52;  -30.000;  -29.000;    0.000;-1.00000
1090.06; -105.000;  -92.000;    0.000;-13.00000
1090.61;  -74.000;  -43.000;    0.000;-31.00000
1091.16;  -70.000;  -73.000;    0.000; 3.00000
1091.70;  -93.000;  -12.000;    0.000;-81.00000
1092.25;  -93.000;  -84.000;    0.000;-9.00000
1092.80;  -49.000;  -42.000;    0.000;-7.00000
1093.34;  -91.000;  -37.000;    0.000;-54.00000
1093.89;  -61.000;  -49.000;    0.000;-12.00000
1094.44;  -56.000; -106.000;    0.000;50.00000
1094.98;  -17.000;  -36.000;    0.000;19.00000
1095.53;  -84.000;  -41.000;    0.000;-43.00000
1096.07;  -46.000;  -43.000;    0.000;-3.00000
1096.62;  -88.000;  -72.000;    0.000;-16.00000
1097.17;  -26.000;  -81.000;    0.000;55.00000
1097.71;  -98.000;  -54.000;    0.000;-44.00000
1098.26;  -66.000;  -47.000;    0.000;-19.00000
1098.81;  -49.000;  -59.000;    0.000;10.00000
1099.35; -108.000;  -58.000;    0.000;-50.00000
1099.90;  -29.000;  -62.000;    0.000;33.00000
1100.44;  -77.000;  -61.000;    0.000;-16.00000

