520-525_27mA_3.62V_1701237U1
Integration time [ms]: 100.000
Averaging Nr. [scans]: 1
Smoothing Nr. [pixels]: 0
Data measured with spectrometer [name]: 1701237U1
Wave   ;Sample   ;Dark     ;Reference;Scope Corrected for Dark
[nm]   ;[counts] ;[counts] ;[counts] ;[counts] 

 173.88;  -15.035;  -14.009;    0.000;-1.02573
 174.48;  -48.023;  -57.006;    0.000; 8.98325
 175.09;   12.992;    4.998;    0.000; 7.99379
 175.69;   42.978;    8.994;    0.000;33.98373
 176.30;   -8.036;   65.991;    0.000;-74.02670
 176.90;   17.988;  -12.003;    0.000;29.99078
 177.51;   14.992;  -12.002;    0.000;26.99440
 178.11;   -4.026;   20.993;    0.000;-25.01898
 178.72;   47.986;  -19.004;    0.000;66.98945
 179.32;   39.970;  -80.008;    0.000;119.97800
 179.93;   -8.028;  -64.007;    0.000;55.97903
 180.54;  -49.008;   40.998;    0.000;-90.00597
 181.14;  -11.035;  -11.009;    0.000;-0.02609
 181.75;  -36.010;   44.997;    0.000;-81.00747
 182.35;   38.993;  -54.002;    0.000;92.99458
 182.96;   19.985;   76.996;    0.000;-57.01145
 183.56;   33.962;   16.990;    0.000;16.97210
 184.17;   43.979;  148.995;    0.000;-105.01531
 184.77;   16.992;  -17.002;    0.000;33.99427
 185.38;   56.977;    7.994;    0.000;48.98289
 185.98;   50.976;   50.994;    0.000;-0.01796
 186.59;   40.986;    8.996;    0.000;31.98963
 187.19;    0.981;   10.995;    0.000;-10.01434
 187.80;   43.967;  -30.008;    0.000;73.97559
 188.40;   34.950;   21.987;    0.000;12.96312
 189.01;    0.976;  -34.006;    0.000;34.98210
 189.61;   12.984;  -27.004;    0.000;39.98843
 190.21;   35.967;  -46.009;    0.000;81.97541
 190.82;   16.971;   -3.008;    0.000;19.97818
 191.42;   18.962;  -46.010;    0.000;64.97216
 192.03;  -13.040;  -61.010;    0.000;47.97065
 192.63;   -4.045;   -7.011;    0.000; 2.96698
 193.24;   48.989;   36.997;    0.000;11.99180
 193.84;   55.947;  -37.014;    0.000;92.96035
 194.45;   31.955;  -17.012;    0.000;48.96655
 195.05;  -29.030;  -76.008;    0.000;46.97806
 195.66;    0.958;   -1.011;    0.000; 1.96915
 196.26;  -34.055;   10.986;    0.000;-45.04092
 196.87;    6.951;   -4.013;    0.000;10.96396
 197.47;   55.961;   21.990;    0.000;33.97071
 198.07;   -8.054;  -50.014;    0.000;41.96023
 198.68;  -28.057;  -94.015;    0.000;65.95788
 199.28;   57.967;    9.991;    0.000;47.97535
 199.89;   18.929;  -19.018;    0.000;37.94763
 200.49;  -15.054;   20.986;    0.000;-36.04008
 201.10;   35.958;   17.989;    0.000;17.96872
 201.70;   30.942;   26.985;    0.000; 3.95691
 202.31;   26.975;  -70.007;    0.000;96.98114
 202.91;   43.974;   24.993;    0.000;18.98072
 203.51;  -36.043;  -47.011;    0.000;10.96806
 204.12;   48.994;  -31.002;    0.000;79.99554
 204.72;   44.985;   39.996;    0.000; 4.98855
 205.33;   41.974;  -49.007;    0.000;90.98108
 205.93;   -2.032;  -21.008;    0.000;18.97662
 206.53;   78.965;  -39.009;    0.000;117.97391
 207.14;   19.966; -109.009;    0.000;128.97487
 207.74;   24.968;   45.992;    0.000;-21.02386
 208.35;   -3.040;  -50.010;    0.000;46.97047
 208.95;  -20.033;   -0.009;    0.000;-20.02477
 209.55;   60.966;  206.991;    0.000;-146.02519
 210.16;   36.960;  -10.010;    0.000;46.97053
 210.76;   37.962;  -30.010;    0.000;67.97216
 211.37;   22.964;  -79.009;    0.000;101.97336
 211.97;   -8.023;  -25.006;    0.000;16.98270
 212.57;   94.948;  -30.014;    0.000;124.96107
 213.18;   51.958;  -58.011;    0.000;109.96872
 213.78;    3.953; -103.012;    0.000;106.96487
 214.38;  -15.033;  -23.009;    0.000; 7.97553
 214.99;   32.958;   13.989;    0.000;18.96872
 215.59;   24.950;  -36.013;    0.000;60.96324
 216.20;   24.946;  -27.014;    0.000;51.95962
 216.80;    3.949;  -75.013;    0.000;78.96185
 217.40;   18.960;  -15.010;    0.000;33.97047
 218.01;   49.942;  -26.015;    0.000;75.95709
 218.61;   10.953;  -50.012;    0.000;60.96547
 219.21;   35.966;    0.991;    0.000;34.97505
 219.82;   26.965;  186.991;    0.000;-160.02627
 220.42;   32.963;  -65.010;    0.000;97.97258
 221.02;   13.932;  -59.018;    0.000;72.94944
 221.63;   -3.074; -120.019;    0.000;116.94498
 222.23;    8.950;  -73.013;    0.000;81.96318
 222.83;   30.963;  -20.010;    0.000;50.97240
 223.44;   -7.026;  -50.007;    0.000;42.98108
 224.04;   16.925;  -21.019;    0.000;37.94438
 224.64;   38.944;  -94.014;    0.000;132.95860
 225.25;  -26.036;  -24.009;    0.000;-2.02700
 225.85;   23.971;  -30.007;    0.000;53.97861
 226.45;    7.950;   -8.013;    0.000;15.96306
 227.06;   96.958;   77.989;    0.000;18.96908
 227.66;   -7.035;   97.991;    0.000;-105.02579
 228.26;  -20.046;  -10.012;    0.000;-10.03381
 228.87;  -30.046;  -14.012;    0.000;-16.03441
 229.47;  100.961;   -0.010;    0.000;100.97077
 230.07;  -26.049;  -26.013;    0.000;-0.03640
 230.68;   14.978;    2.994;    0.000;11.98331
 231.28;   15.948;   -4.014;    0.000;19.96107
 231.88;   49.953;  186.988;    0.000;-137.03513
 232.48;   51.974;  -37.007;    0.000;88.98047
 233.09;   31.970;  -13.008;    0.000;44.97752
 233.69;  -15.038;  -32.010;    0.000;16.97168
 234.29;    2.963;   -0.010;    0.000; 2.97240
 234.90;   24.949;   15.987;    0.000; 8.96185
 235.50;  -23.076;  -52.020;    0.000;28.94329
 236.10;   -2.036;  -34.009;    0.000;31.97330
 236.70;   40.951;  -28.013;    0.000;68.96372
 237.31;    6.946; -117.014;    0.000;123.96011
 237.91;  -19.052;   -0.013;    0.000;-19.03845
 238.51;  -40.031;  -61.008;    0.000;20.97722
 239.11;    7.997;   40.999;    0.000;-33.00211
 239.72;  -32.059;  -33.015;    0.000; 0.95649
 240.32;   33.982;   -4.005;    0.000;37.98638
 240.92;  -42.049;   52.987;    0.000;-95.03646
 241.53;   32.942;   35.985;    0.000;-3.04333
 242.13;   27.957;   48.989;    0.000;-21.03218
 242.73;   36.965;   39.991;    0.000;-3.02627
 243.33;   44.988;  -31.003;    0.000;75.99126
 243.93;   -4.052;    2.987;    0.000;-7.03863
 244.54;   -2.039;  -15.010;    0.000;12.97077
 245.14;   52.957;  -29.011;    0.000;81.96806
 245.74;  -12.050;   58.987;    0.000;-71.03730
 246.34;   28.954;   16.988;    0.000;11.96553
 246.95;  -16.054;  -84.014;    0.000;67.95968
 247.55;    1.953;  -41.012;    0.000;42.96523
 248.15;   -6.066;   -4.017;    0.000;-2.04869
 248.75;   16.966;   21.991;    0.000;-5.02495
 249.36;   61.935;  -53.017;    0.000;114.95173
 249.96;   36.970;  -78.008;    0.000;114.97782
 250.56;    4.953;   13.988;    0.000;-9.03477
 251.16;  -18.036;  -68.009;    0.000;49.97324
 251.76;   45.955;   37.988;    0.000; 7.96673
 252.37;    5.968;   41.992;    0.000;-36.02350
 252.97;  -14.043;  -30.011;    0.000;15.96806
 253.57;  -21.039;   10.990;    0.000;-32.02923
 254.17;  -19.053;   22.986;    0.000;-42.03929
 254.77;   27.968;   -5.008;    0.000;32.97589
 255.38;  -35.053;  -92.014;    0.000;56.96047
 255.98;   41.986;    4.996;    0.000;36.98939
 256.58;   18.968;   47.992;    0.000;-29.02398
 257.18;    4.957;  -38.011;    0.000;42.96842
 257.78;  -72.041;   23.989;    0.000;-96.03019
 258.38;   32.960;  -46.010;    0.000;78.97047
 258.99;  -45.027;  -29.007;    0.000;-16.02001
 259.59;   21.964;  -44.009;    0.000;65.97312
 260.19;    1.951;  -56.013;    0.000;57.96390
 260.79;   54.953;   27.988;    0.000;26.96487
 261.39;    7.947;  189.986;    0.000;-182.03941
 261.99;  -20.056;  -52.014;    0.000;31.95866
 262.60;  -21.053;    2.986;    0.000;-24.03905
 263.20;   41.975;   -0.006;    0.000;41.98150
 263.80;  -57.072;  -75.019;    0.000;17.94667
 264.40;  -63.046;  -33.012;    0.000;-30.03399
 265.00;   11.960;   36.990;    0.000;-25.02965
 265.60;    9.964;  -50.009;    0.000;59.97336
 266.20;   58.970;  -13.008;    0.000;71.97746
 266.81;   11.963; -101.010;    0.000;112.97252
 267.41;   -0.051;  -40.013;    0.000;39.96228
 268.01;   42.971;   42.993;    0.000;-0.02151
 268.61;  -43.053;  -32.014;    0.000;-11.03899
 269.21;   13.945;  -22.014;    0.000;35.95944
 269.81;  -40.024;  -56.006;    0.000;15.98204
 270.41;   36.961;   75.990;    0.000;-39.02911
 271.01;   36.952;   25.988;    0.000;10.96438
 271.62;   18.973;    3.993;    0.000;14.97993
 272.22;  -47.031;  -44.008;    0.000;-3.02314
 272.82;   22.955;   37.988;    0.000;-15.03375
 273.42;   59.956;   58.989;    0.000; 0.96728
 274.02;   16.963;    2.991;    0.000;13.97288
 274.62;  -43.060;   -5.016;    0.000;-38.04472
 275.22;   14.970;  -86.008;    0.000;100.97770
 275.82;   10.948;  -14.013;    0.000;24.96161
 276.42;   22.949;  -52.013;    0.000;74.96252
 277.02;  -36.029;  -32.008;    0.000;-4.02188
 277.63;   46.952;  -20.012;    0.000;66.96450
 278.23;   -3.048;  -24.012;    0.000;20.96475
 278.83;   23.947;   -5.014;    0.000;28.96047
 279.43;    8.949;   70.987;    0.000;-62.03821
 280.03;   12.984;  -34.004;    0.000;46.98825
 280.63;   36.956;  -29.011;    0.000;65.96734
 281.23;   20.958;   55.989;    0.000;-35.03146
 281.83;  -42.059;  -44.015;    0.000; 1.95607
 282.43;  310.956;  307.989;    0.000; 2.96710
 283.03;    7.962;   67.990;    0.000;-60.02814
 283.63;   20.953;  -54.012;    0.000;74.96499
 284.23;    7.946;  -23.014;    0.000;30.95999
 284.83;   -6.055;  -30.014;    0.000;23.95926
 285.43;   -1.038;   16.990;    0.000;-18.02850
 286.03;  -69.023;  -34.006;    0.000;-35.01687
 286.63;   35.953;   25.988;    0.000; 9.96481
 287.23;   16.961;  -31.010;    0.000;47.97101
 287.84;  -55.032;  -28.008;    0.000;-27.02374
 288.44;    1.965;    8.991;    0.000;-7.02627
 289.04;    8.973;  -70.007;    0.000;78.98029
 289.64;   -1.035;  -41.009;    0.000;39.97403
 290.24;    7.920;  -53.021;    0.000;60.94100
 290.84;    8.990;  -68.003;    0.000;76.99247
 291.44;  -15.025;  -35.006;    0.000;19.98150
 292.04;  -15.016;  -23.004;    0.000; 7.98783
 292.64;   28.968;    1.992;    0.000;26.97595
 293.24;   56.976;  -28.006;    0.000;84.98222
 293.84;   29.951;  -61.013;    0.000;90.96348
 294.44;    0.953;   30.988;    0.000;-30.03489
 295.04;   -0.033;  -69.008;    0.000;68.97577
 295.64;   34.981;  -21.005;    0.000;55.98572
 296.24;  -14.020;  -43.005;    0.000;28.98511
 296.84;  -18.027;  -52.007;    0.000;33.98029
 297.44;   11.960;  -16.010;    0.000;27.97023
 298.04;   30.990;  -52.003;    0.000;82.99277
 298.64;  -15.021;  -82.006;    0.000;66.98409
 299.24;  -10.045;  -81.012;    0.000;70.96631
 299.84;   44.978;   72.994;    0.000;-28.01603
 300.44;   -5.034;  -44.009;    0.000;38.97463
 301.04;   48.987;    2.997;    0.000;45.99012
 301.64;   34.952;  -51.012;    0.000;85.96426
 302.24;   54.959;  -12.011;    0.000;66.96963
 302.83;   30.989;  -27.003;    0.000;57.99168
 303.43;   16.954;  -75.012;    0.000;91.96607
 304.03;   72.943;  -32.015;    0.000;104.95763
 304.63;   84.970;  -47.008;    0.000;131.97806
 305.23;   15.966;  -94.009;    0.000;109.97481
 305.83;    2.962;  -85.010;    0.000;87.97204
 306.43;   44.962;  -43.010;    0.000;87.97150
 307.03;    7.953;   80.988;    0.000;-73.03459
 307.63;   12.963;    2.990;    0.000; 9.97234
 308.23;   33.955;   13.988;    0.000;19.96692
 308.83;    7.952;  -32.012;    0.000;39.96408
 309.43;   -0.061;  -87.016;    0.000;86.95492
 310.03;   34.936;  -17.016;    0.000;51.95287
 310.63;   -4.054;    7.986;    0.000;-12.04008
 311.23;   15.935;  -95.017;    0.000;110.95179
 311.83;  -40.039;   -5.010;    0.000;-35.02899
 312.43;   18.973;  -51.007;    0.000;69.98011
 313.02;  -39.051;   51.987;    0.000;-91.03748
 313.62;   22.965; -116.009;    0.000;138.97421
 314.22;   -8.041;  -45.011;    0.000;36.96957
 314.82;   22.948;   55.987;    0.000;-33.03845
 315.42;  -29.063;   28.984;    0.000;-58.04646
 316.02;   46.947;    5.986;    0.000;40.96041
 316.62;   44.929;  -45.018;    0.000;89.94697
 317.22;    6.935;  -62.017;    0.000;68.95203
 317.82;  -31.058;  -57.015;    0.000;25.95661
 318.42;   63.965;  290.991;    0.000;-227.02603
 319.01;    0.940;   33.984;    0.000;-33.04466
 319.61;   52.935;   -4.017;    0.000;56.95179
 320.21;    2.941;  -22.015;    0.000;24.95613
 320.81;  -13.083;   11.978;    0.000;-25.06183
 321.41;  -28.038;   67.990;    0.000;-96.02796
 322.01;   -7.053;  -67.014;    0.000;59.96101
 322.61;  -22.076;   20.980;    0.000;-43.05611
 323.21;   51.937;   -1.016;    0.000;52.95324
 323.80;   18.940; -111.016;    0.000;129.95522
 324.40;    0.908;  -12.024;    0.000;12.93160
 325.00;  -52.078;  -57.020;    0.000; 4.94185
 325.60;   13.923;   18.980;    0.000;-5.05689
 326.20;  -30.069;  -50.018;    0.000;19.94854
 326.80;   57.920;   18.979;    0.000;38.94094
 327.40;   47.904;    8.975;    0.000;38.92859
 327.99;   26.882;    1.969;    0.000;24.91220
 328.59;  -37.124;  -40.032;    0.000; 2.90834
 329.19;   89.864;  476.965;    0.000;-387.10118
 329.79;  -27.134;  -30.035;    0.000; 2.90057
 330.39;   40.858;   78.963;    0.000;-38.10522
 330.99;  -27.134;  -52.035;    0.000;24.90026
 331.58;   47.846;  -68.040;    0.000;115.88580
 332.18;  -59.172;  -67.044;    0.000; 7.87242
 332.78;    0.823;   78.954;    0.000;-78.13131
 333.38;   -8.197;   57.949;    0.000;-66.14632
 333.98;  -69.185;  -76.048;    0.000; 6.86284
 334.57;  -30.194;    0.950;    0.000;-31.14403
 335.17;   14.817;  -59.047;    0.000;73.86405
 335.77;    9.826;  -28.045;    0.000;37.87061
 336.37;   44.807;  100.950;    0.000;-56.14313
 336.97;   48.841;  -13.041;    0.000;61.88200
 337.56;   45.832;  -19.043;    0.000;64.87519
 338.16;   10.839;   -1.041;    0.000;11.88086
 338.76;    7.872;   45.967;    0.000;-38.09510
 339.36;   -8.144;  -45.037;    0.000;36.89327
 339.96;   42.863;  -64.035;    0.000;106.89864
 340.55;   -3.135;   40.965;    0.000;-44.09998
 341.15;   15.863;  -42.035;    0.000;57.89828
 341.75;    5.843;   79.960;    0.000;-74.11613
 342.35;   42.842;  -60.041;    0.000;102.88303
 342.94;  -19.197;   20.949;    0.000;-40.14638
 343.54;   18.832;  -63.043;    0.000;81.87550
 344.14;   47.829;  -78.044;    0.000;125.87321
 344.74;  -52.184;  -44.048;    0.000;-8.13680
 345.33;  -29.162;   68.958;    0.000;-98.11998
 345.93;  -39.161;  -31.042;    0.000;-8.11950
 346.53;  -21.144;  -25.037;    0.000; 3.89351
 347.13;    2.849;  -11.039;    0.000;13.88791
 347.72;  -76.174;  -39.045;    0.000;-37.12890
 348.32;    9.853;   12.962;    0.000;-3.10926
 348.92;  -18.157;  -67.040;    0.000;48.88363
 349.52;   17.838;  -16.042;    0.000;33.87996
 350.11;   24.836;   48.958;    0.000;-24.12185
 350.71;   48.850;  -17.039;    0.000;65.88893
 351.31;    4.857;   -7.037;    0.000;11.89418
 351.91;    3.856;  -27.037;    0.000;30.89291
 352.50;   40.853;    4.962;    0.000;35.89129
 353.10;   16.849;   14.961;    0.000; 1.88827
 353.70;  -74.128;   57.967;    0.000;-132.09491
 354.29;   64.847;  432.961;    0.000;-368.11317
 354.89;  -54.172;    0.956;    0.000;-55.12758
 355.49;   38.868;  -27.034;    0.000;65.90195
 356.09;   29.834;   13.957;    0.000;15.87676
 356.68;   31.854;  -57.038;    0.000;88.89201
 357.28;  -28.177;  -49.046;    0.000;20.86905
 357.88;  -12.173;   16.955;    0.000;-29.12800
 358.47;  -17.155;  -93.040;    0.000;75.88508
 359.07;   55.855;   52.962;    0.000; 2.89213
 359.67;   -4.149;  -62.038;    0.000;57.88978
 360.26;  -27.151;  -24.039;    0.000;-3.11185
 360.86;  -30.163;  -61.042;    0.000;30.87899
 361.46;    3.868;   17.966;    0.000;-14.09757
 362.05;    5.838;   46.958;    0.000;-41.12047
 362.65;  -13.134;  -39.034;    0.000;25.90093
 363.25;   27.866; -113.035;    0.000;140.90075
 363.84;   -2.132;  -70.034;    0.000;67.90207
 364.44;  -16.142;   -8.037;    0.000;-8.10570
 365.04;    3.856;  -20.037;    0.000;23.89285
 365.63;    6.860;  -71.036;    0.000;77.89593
 366.23;    4.869;  -30.034;    0.000;34.90267
 366.83;  -15.140;  -20.036;    0.000; 4.89611
 367.42;   60.845;  -52.040;    0.000;112.88508
 368.02;   -8.141;  -71.036;    0.000;62.89544
 368.62;   11.842;   16.959;    0.000;-5.11721
 369.21;   83.845;   -8.040;    0.000;91.88472
 369.81;   82.848;  261.961;    0.000;-179.11269
 370.41;  -32.114;  -75.029;    0.000;42.91527
 371.00;   -5.173;  -67.045;    0.000;61.87128
 371.60;    3.833;   -5.043;    0.000; 8.87616
 372.19;   12.849;  -38.039;    0.000;50.88803
 372.79;   -1.129;  -72.033;    0.000;70.90436
 373.39;   18.861;    2.964;    0.000;15.89719
 373.98;  -55.158;  -31.041;    0.000;-24.11715
 374.58;    8.855;   -2.037;    0.000;10.89243
 375.17;   39.817;  -58.047;    0.000;97.86423
 375.77;   59.841;  157.959;    0.000;-98.11781
 376.37;    6.839;  -40.042;    0.000;46.88032
 376.96;   24.842;   40.959;    0.000;-16.11757
 377.56;   27.858;   49.963;    0.000;-22.10546
 378.15;  -23.146;   18.962;    0.000;-42.10823
 378.75;   13.840;   17.959;    0.000;-4.11836
 379.35;  -12.156;  -64.040;    0.000;51.88429
 379.94;    9.835;   36.958;    0.000;-27.12209
 380.54;   42.829;  -71.044;    0.000;113.87327
 381.13;   17.840;   17.959;    0.000;-0.11860
 381.73;  -28.133;  -29.034;    0.000; 0.90165
 382.32;  -10.122;  -23.031;    0.000;12.90973
 382.92;  -10.157;  -37.040;    0.000;26.88381
 383.52;    2.854;  -33.038;    0.000;35.89171
 384.11;    9.843;  -29.041;    0.000;38.88333
 384.71;   -4.172;  -88.044;    0.000;83.87266
 385.30;   23.834;    2.957;    0.000;20.87688
 385.90;   10.845;   57.960;    0.000;-47.11528
 386.49;   17.831;  -88.044;    0.000;105.87477
 387.09;   -1.175;   21.955;    0.000;-23.12981
 387.68;   42.850;  -44.039;    0.000;86.88893
 388.28;   -8.151;  -38.039;    0.000;29.88785
 388.87;   19.870;  286.966;    0.000;-267.09666
 389.47;   12.831;  -33.044;    0.000;45.87435
 390.07;   55.843;    0.960;    0.000;54.88387
 390.66;   -9.144;  -55.037;    0.000;45.89303
 391.26;   26.836; -127.042;    0.000;153.87797
 391.85;   27.842;  -36.041;    0.000;63.88243
 392.45;   36.838;  -80.042;    0.000;116.87977
 393.04;  -36.138;  -55.036;    0.000;18.89755
 393.64;   39.855;  -83.037;    0.000;122.89237
 394.23;   44.845;  -25.040;    0.000;69.88490
 394.83;   10.855;  -82.037;    0.000;92.89243
 395.42;   13.819;  -29.047;    0.000;42.86591
 396.02;  -51.141;   82.964;    0.000;-134.10444
 396.61;   43.827;  -37.045;    0.000;80.87134
 397.21;   16.844;  -30.040;    0.000;46.88411
 397.80; 1300.848;12139.961;    0.000;-10839.11287
 398.40;   17.844;  107.960;    0.000;-90.11552
 398.99;  -54.155;  -34.040;    0.000;-20.11492
 399.59;   42.832;  -18.043;    0.000;60.87501
 400.18;   -8.153;  -10.039;    0.000; 1.88664
 400.78;   40.850;  -52.039;    0.000;92.88845
 401.37;  -15.131;  -85.034;    0.000;69.90255
 401.96;  -34.161;  -81.042;    0.000;46.88038
 402.56;    8.850; -102.039;    0.000;110.88839
 403.15;   16.848;  -31.039;    0.000;47.88713
 403.75;  -56.139;  -19.036;    0.000;-37.10287
 404.34;   22.841;   -2.041;    0.000;24.88170
 404.94;  -29.156;  -82.040;    0.000;52.88429
 405.53;   14.837; -111.042;    0.000;125.87881
 406.13;  -24.167;   30.957;    0.000;-55.12360
 406.72;   16.865;  -57.035;    0.000;73.89984
 407.32;  -17.155;  -22.040;    0.000; 4.88484
 407.91;   41.850;   38.961;    0.000; 2.88851
 408.50;  -11.126;  -31.032;    0.000;19.90677
 409.10;   92.850;  -48.039;    0.000;140.88863
 409.69;   35.863;   47.965;    0.000;-12.10172
 410.29;    9.859;  -35.036;    0.000;44.89568
 410.88;   10.851;  -48.038;    0.000;58.88948
 411.47;   62.861;  -97.036;    0.000;159.89665
 412.07;   11.860;  -79.036;    0.000;90.89635
 412.66;  -29.141;  -32.036;    0.000; 2.89550
 413.26;  -11.133;  -29.034;    0.000;17.90117
 413.85;    9.869;  -52.034;    0.000;61.90316
 414.45;   56.852;   99.962;    0.000;-43.10962
 415.04;   42.868; -105.034;    0.000;147.90207
 415.63;  -29.148;  -21.038;    0.000;-8.10974
 416.23;  -23.148;  -22.038;    0.000;-1.10998
 416.82;  -39.153;   -3.040;    0.000;-36.11378
 417.41;   46.877;  -98.032;    0.000;144.90840
 418.01;  -27.144;  -60.037;    0.000;32.89279
 418.60;    5.845;  -20.040;    0.000;25.88520
 419.20;   23.861;  -76.036;    0.000;99.89695
 419.79;   -1.131;    6.966;    0.000;-8.09696
 420.38;  -33.136;  -44.035;    0.000;10.89888
 420.98;   14.870;  -92.034;    0.000;106.90334
 421.57;   10.858;  -91.037;    0.000;101.89484
 422.16;  -53.122;   -8.031;    0.000;-45.09052
 422.76;    0.879;  -44.031;    0.000;44.91057
 423.35;   33.865;  -92.035;    0.000;125.89954
 423.94;  -15.124;  148.968;    0.000;-164.09172
 424.54;   13.883;  -39.030;    0.000;52.91298
 425.13;   -7.146;   46.962;    0.000;-54.10853
 425.73;   16.872;   29.967;    0.000;-13.09516
 426.32;   16.863;  -33.035;    0.000;49.89870
 426.91;   18.884;    8.970;    0.000; 9.91406
 427.51;   40.890;    8.972;    0.000;31.91870
 428.10;   26.878;   -0.031;    0.000;26.90985
 428.69;  -10.123;  -42.032;    0.000;31.90900
 429.28;   24.855; -104.038;    0.000;128.89207
 429.88;    0.867;  -31.034;    0.000;31.90111
 430.47;  -23.110;  -27.029;    0.000; 3.91804
 431.06;   -5.122;   -1.031;    0.000;-4.09039
 431.66;  -10.116;  -35.030;    0.000;24.91406
 432.25;  -40.122;  -61.031;    0.000;20.90973
 432.84;   18.894; -103.027;    0.000;121.92136
 433.44;  -18.135;  -51.035;    0.000;32.89954
 434.03;   17.893;  -58.028;    0.000;75.92063
 434.62;  -25.121;  -27.031;    0.000; 1.91045
 435.22;   24.912;  -18.023;    0.000;42.93449
 435.81;    0.885;  -39.030;    0.000;39.91443
 436.40;   -0.101;  -79.026;    0.000;78.92485
 436.99;   12.880;  -28.031;    0.000;40.91069
 437.59;  -18.115; -101.030;    0.000;82.91461
 438.18;   23.896;    1.973;    0.000;21.92286
 438.77;   52.899; -101.026;    0.000;153.92491
 439.36;    7.881;  -47.031;    0.000;54.91147
 439.96;   10.910;   61.977;    0.000;-51.06689
 440.55;  -93.111;  -66.029;    0.000;-27.08208
 441.14;   10.898;    2.974;    0.000; 7.92431
 441.73;  -10.136;  -20.035;    0.000; 9.89900
 442.33;   36.875; -111.032;    0.000;147.90713
 442.92;  -23.095;   23.975;    0.000;-47.07057
 443.51;   17.889;  -23.029;    0.000;40.91762
 444.10;   36.882;  -42.030;    0.000;78.91244
 444.70;  -34.094;  -64.024;    0.000;29.93034
 445.29;  -42.125;  -75.032;    0.000;32.90744
 445.88;  -15.115;  -94.030;    0.000;78.91491
 446.47;   -9.094;   22.976;    0.000;-32.06948
 447.07;  -33.098;  -87.025;    0.000;53.92696
 447.66;  -21.118;   -5.030;    0.000;-16.08756
 448.25;  -18.104;    6.973;    0.000;-25.07720
 448.84;   -4.107;  -22.028;    0.000;17.92051
 449.43;   -6.080;  -60.021;    0.000;53.94058
 450.03;    2.868;   58.966;    0.000;-56.09829
 450.62;  -10.121; -126.031;    0.000;115.91045
 451.21;   10.873;  -56.033;    0.000;66.90605
 451.80;   24.894;   56.973;    0.000;-32.07828
 452.39;  -63.098;  -91.025;    0.000;27.92720
 452.99;    5.910;  -46.023;    0.000;51.93329
 453.58;    8.907;  -42.024;    0.000;50.93106
 454.17;   17.928;  -50.019;    0.000;67.94661
 454.76;   13.918;   26.979;    0.000;-13.06075
 455.35;   10.909;   32.976;    0.000;-22.06762
 455.95;    4.895;  -28.027;    0.000;32.92196
 456.54;   28.919;  -33.021;    0.000;61.93974
 457.13;  -41.103;  -52.026;    0.000;10.92395
 457.72;   25.926;  -46.019;    0.000;71.94480
 458.31;  -25.078; -109.020;    0.000;83.94185
 458.90;   48.902;   25.975;    0.000;22.92696
 459.50;   25.897;   -2.027;    0.000;27.92365
 460.09;   87.890;  -72.028;    0.000;159.91858
 460.68;    0.905;  -92.024;    0.000;92.92979
 461.27;   11.902;  -24.025;    0.000;35.92702
 461.86;   11.911;  -20.023;    0.000;31.93401
 462.45;   -0.056;    2.986;    0.000;-3.04146
 463.04;   13.899;  -57.026;    0.000;70.92527
 463.64;   54.933;   69.983;    0.000;-15.04990
 464.23;   21.903;   44.975;    0.000;-23.07189
 464.82;   30.913;  -30.022;    0.000;60.93558
 465.41;  -36.055;  -50.014;    0.000;13.95914
 466.00;   59.914;  -48.022;    0.000;107.93594
 466.59;   -9.061;    7.984;    0.000;-17.04550
 467.18;   45.931;  -41.018;    0.000;86.94860
 467.77;  -29.081;  -56.021;    0.000;26.93980
 468.37;   30.902;  -63.025;    0.000;93.92726
 468.96;   39.902;  -33.025;    0.000;72.92702
 469.55;   53.912;   35.977;    0.000;17.93461
 470.14;   10.903;  -10.025;    0.000;20.92793
 470.73;   61.893;   15.972;    0.000;45.92081
 471.32;  -27.082;  -45.021;    0.000;17.93944
 471.91;   50.924;  -52.020;    0.000;102.94353
 472.50;   -1.110;  -75.028;    0.000;73.91846
 473.09;  -26.061; -113.016;    0.000;86.95474
 473.68;   22.895;   42.973;    0.000;-20.07816
 474.27;   14.934;  -68.017;    0.000;82.95113
 474.86;   -9.085;  -87.022;    0.000;77.93672
 475.46;   -8.074;  -19.019;    0.000;10.94504
 476.05;   76.925;   77.981;    0.000;-1.05550
 476.64;   85.929;  -48.018;    0.000;133.94721
 477.23;  -23.081;  -91.021;    0.000;67.93980
 477.82;  107.926; -115.019;    0.000;222.94480
 478.41;   35.926;  -83.019;    0.000;118.94528
 479.00;   42.919;  -19.021;    0.000;61.94004
 479.59;   22.906;   22.976;    0.000;-0.06954
 480.18;  114.934;   62.983;    0.000;51.95083
 480.77;   67.933;  -51.017;    0.000;118.95010
 481.36;   68.933;  -89.017;    0.000;157.95052
 481.95;   44.917;   10.979;    0.000;33.93853
 482.54;  179.900; -106.026;    0.000;285.92582
 483.13;   98.915;  -40.022;    0.000;138.93715
 483.72;  126.938;  -49.016;    0.000;175.95408
 484.31;  163.927; -102.019;    0.000;265.94588
 484.90;  136.930;  -20.018;    0.000;156.94781
 485.49;   73.949;  -60.013;    0.000;133.96185
 486.08;  137.937;  -44.016;    0.000;181.95318
 486.67;  130.943;  -26.015;    0.000;156.95770
 487.26;  196.941;  -19.015;    0.000;215.95655
 487.85;  145.928;  -87.018;    0.000;232.94691
 488.44;  185.916;  -98.022;    0.000;283.93733
 489.03;  236.934;   46.983;    0.000;189.95119
 489.62;  351.942;  -39.015;    0.000;390.95727
 490.21;  281.932; -101.018;    0.000;382.94968
 490.80;  335.941;  -51.015;    0.000;386.95601
 491.39;  356.932; -120.018;    0.000;476.94950
 491.98;  382.938;   -0.016;    0.000;382.95414
 492.57;  427.952;  -63.012;    0.000;490.96469
 493.16;  489.922;  -42.020;    0.000;531.94197
 493.75;  411.923;  -77.020;    0.000;488.94305
 494.34;  454.928;   -8.019;    0.000;462.94673
 494.93;  532.947;  -57.014;    0.000;589.96059
 495.52;  604.922;  -73.020;    0.000;677.94191
 496.11;  576.924;  -48.019;    0.000;624.94396
 496.70;  710.904;  -84.025;    0.000;794.92907
 497.29;  742.926;  -31.019;    0.000;773.94534
 497.88;  754.933;   13.983;    0.000;740.95022
 498.47;  857.935;   27.983;    0.000;829.95161
 499.06; 1010.922;   27.980;    0.000;982.94215
 499.64;  984.938;  -57.016;    0.000;1041.95384
 500.23; 1165.928;  -57.019;    0.000;1222.94631
 500.82; 1142.930;  -52.018;    0.000;1194.94829
 501.41; 1303.915;   29.978;    0.000;1273.93690
 502.00; 1290.923;  -83.020;    0.000;1373.94281
 502.59; 1426.932;  -40.018;    0.000;1466.94968
 503.18; 1526.929;  -28.018;    0.000;1554.94739
 503.77; 1655.929; -122.018;    0.000;1777.94763
 504.36; 1837.934;   45.983;    0.000;1791.95076
 504.95; 1871.931; -141.018;    0.000;2012.94884
 505.54; 2158.927;  -93.019;    0.000;2251.94576
 506.12; 2253.930;   99.982;    0.000;2153.94781
 506.71; 2335.930;  -54.018;    0.000;2389.94793
 507.30; 2605.911;   -3.023;    0.000;2608.93425
 507.89; 2723.912;  -52.023;    0.000;2775.93461
 508.48; 2983.936;  -72.017;    0.000;3055.95251
 509.07; 3056.904;   -7.025;    0.000;3063.92841
 509.66; 3382.938;   10.984;    0.000;3371.95396
 510.25; 3672.913;  -83.022;    0.000;3755.93558
 510.84; 3938.922;  -32.020;    0.000;3970.94245
 511.42; 4105.929;  -31.018;    0.000;4136.94721
 512.01; 4568.963;  108.990;    0.000;4459.97264
 512.60; 4744.924;  -16.020;    0.000;4760.94359
 513.19; 5072.922;  -75.020;    0.000;5147.94197
 513.78; 5518.918;  -91.021;    0.000;5609.93938
 514.37; 5655.938;  -35.016;    0.000;5690.95420
 514.95; 6073.950;  -75.013;    0.000;6148.96276
 515.54; 6272.933;   13.983;    0.000;6258.95010
 516.13; 6759.924;  -89.020;    0.000;6848.94359
 516.72; 7037.936;  -33.016;    0.000;7070.95281
 517.31; 7361.938;  -29.016;    0.000;7390.95396
 517.90; 7609.942;  -19.015;    0.000;7628.95667
 518.48; 7899.935;  -68.017;    0.000;7967.95185
 519.07; 8228.920;  -16.021;    0.000;8244.94070
 519.66; 8622.945;  125.986;    0.000;8496.95956
 520.25; 8895.941;  -34.015;    0.000;8929.95601
 520.84; 9148.928;    0.981;    0.000;9147.94679
 521.43; 9264.943;  -56.015;    0.000;9320.95800
 522.01; 9511.942;   62.985;    0.000;9448.95715
 522.60; 9809.934;    8.983;    0.000;9800.95070
 523.19; 9953.937;   -4.016;    0.000;9957.95330
 523.78;10038.928;  -31.019;    0.000;10069.94625
 524.37; 9937.919;   -7.021;    0.000;9944.93962
 524.95;10272.947;  -52.014;    0.000;10324.96035
 525.54;10188.927;    0.981;    0.000;10187.94582
 526.13;10237.931;  -80.018;    0.000;10317.94902
 526.72;10196.959;   10.989;    0.000;10185.96927
 527.30; 9975.944;  -53.015;    0.000;10028.95824
 527.89; 9987.926;  -69.019;    0.000;10056.94510
 528.48; 9914.946;    2.986;    0.000;9911.96005
 529.07; 9870.929;   -3.018;    0.000;9873.94745
 529.65; 9648.951;  113.987;    0.000;9534.96384
 530.24; 9355.929;   -0.018;    0.000;9355.94709
 530.83; 9310.949;  -70.013;    0.000;9380.96203
 531.42; 9128.943;   -4.015;    0.000;9132.95782
 532.00; 8649.935;  -25.017;    0.000;8674.95197
 532.59; 8493.957;  -12.011;    0.000;8505.96830
 533.18; 8172.956;   11.989;    0.000;8160.96758
 533.77; 7974.933;   47.983;    0.000;7926.95016
 534.35; 7786.942;   -8.015;    0.000;7794.95691
 534.94; 7526.944;  -60.015;    0.000;7586.95812
 535.53; 7285.959;   67.989;    0.000;7217.96963
 536.12; 6999.926;  -19.019;    0.000;7018.94480
 536.70; 6517.962;  -94.010;    0.000;6611.97192
 537.29; 6390.950;  -25.013;    0.000;6415.96300
 537.88; 6137.951;  -46.013;    0.000;6183.96336
 538.46; 6012.939;  -77.016;    0.000;6089.95462
 539.05; 5700.952;  -27.013;    0.000;5727.96402
 539.64; 5406.961;   13.990;    0.000;5392.97083
 540.23; 5255.945;   17.986;    0.000;5237.95932
 540.81; 5048.956;  101.989;    0.000;4946.96740
 541.40; 4798.929;  -76.018;    0.000;4874.94721
 541.99; 4687.945;  -35.014;    0.000;4722.95932
 542.57; 4595.950;  -71.013;    0.000;4666.96324
 543.16; 4311.936;  -16.016;    0.000;4327.95281
 543.75; 4184.967;   10.992;    0.000;4173.97583
 544.33; 3962.950;   54.987;    0.000;3907.96264
 544.92; 3914.966;    8.991;    0.000;3905.97493
 545.51; 3813.947;   26.986;    0.000;3786.96083
 546.09; 3556.938;    1.984;    0.000;3554.95378
 546.68; 3477.940;   19.984;    0.000;3457.95541
 547.27; 3367.960;  -14.010;    0.000;3381.97059
 547.85; 3196.955;   -3.012;    0.000;3199.96679
 548.44; 3087.962;  -54.010;    0.000;3141.97204
 549.03; 3011.964;  -28.009;    0.000;3039.97354
 549.61; 3003.938;  -64.016;    0.000;3067.95396
 550.20; 2745.957;  -62.011;    0.000;2807.96794
 550.78; 2738.946;   54.986;    0.000;2683.96029
 551.37; 2603.978;  -76.006;    0.000;2679.98343
 551.96; 2550.966;  -30.009;    0.000;2580.97469
 552.54; 2369.924;  -55.020;    0.000;2424.94335
 553.13; 2319.941;  -59.015;    0.000;2378.95631
 553.72; 2246.950;  -92.013;    0.000;2338.96300
 554.30; 2188.976;   47.994;    0.000;2140.98246
 554.89; 2114.975;  -54.006;    0.000;2168.98144
 555.47; 1947.956;  -11.011;    0.000;1958.96746
 556.06; 2003.944;  -39.014;    0.000;2042.95860
 556.65; 1791.954;   -6.012;    0.000;1797.96559
 557.23; 1759.951;  -27.013;    0.000;1786.96396
 557.82; 1705.964;  -93.009;    0.000;1798.97336
 558.40; 1583.956;  -89.011;    0.000;1672.96728
 558.99; 1498.925;  -39.019;    0.000;1537.94444
 559.58; 1453.941;  -62.015;    0.000;1515.95625
 560.16; 1474.927;  -99.019;    0.000;1573.94582
 560.75; 1366.936;  -70.016;    0.000;1436.95287
 561.33; 1334.955;   51.988;    0.000;1282.96692
 561.92; 1230.940;  -69.015;    0.000;1299.95571
 562.50; 1247.959;   12.990;    0.000;1234.96987
 563.09; 1168.951;  -39.013;    0.000;1207.96360
 563.68; 1189.954;  -31.012;    0.000;1220.96619
 564.26; 1082.947;  -95.014;    0.000;1177.96041
 564.85; 1055.952;  -18.012;    0.000;1073.96426
 565.43;  969.945;  -27.014;    0.000;996.95932
 566.02;  996.949;  -49.013;    0.000;1045.96185
 566.60;  922.961;   -5.010;    0.000;927.97144
 567.19;  929.945;  -91.014;    0.000;1020.95902
 567.77;  835.973;  -96.007;    0.000;931.97981
 568.36;  857.968;   50.992;    0.000;806.97632
 568.94;  725.958;  -64.011;    0.000;789.96890
 569.53;  749.955;    1.988;    0.000;747.96649
 570.11;  706.975;  -45.006;    0.000;751.98132
 570.70;  778.958;  -62.011;    0.000;840.96902
 571.28;  642.931;   59.982;    0.000;582.94890
 571.87;  689.975;  -56.007;    0.000;745.98126
 572.45;  590.964;  -62.009;    0.000;652.97324
 573.04;  613.936;  -66.016;    0.000;679.95257
 573.62;  534.959; -112.011;    0.000;646.96975
 574.21;  583.954;   51.988;    0.000;531.96613
 574.79;  618.928;    8.981;    0.000;609.94649
 575.38;  481.958;    0.989;    0.000;480.96921
 575.96;  480.974;  -76.007;    0.000;556.98053
 576.55;  495.965;  -62.009;    0.000;557.97427
 577.13;  443.971;   14.993;    0.000;428.97885
 577.72;  427.962; -121.010;    0.000;548.97180
 578.30;  402.948;  -53.013;    0.000;455.96143
 578.89;  394.976;  -90.006;    0.000;484.98222
 579.47;  327.950;  -44.013;    0.000;371.96270
 580.06;  332.939;  -24.016;    0.000;356.95480
 580.64;  337.960;  -72.010;    0.000;409.97011
 581.23;  279.959;  -48.011;    0.000;327.96975
 581.81;  294.951;   69.987;    0.000;224.96384
 582.39;  326.961;  -32.010;    0.000;358.97107
 582.98;  257.939;  -45.016;    0.000;302.95438
 583.56;  291.933;  -24.017;    0.000;315.95028
 584.15;  257.947;   18.986;    0.000;238.96095
 584.73;  223.935;  -21.017;    0.000;244.95155
 585.32;  222.948;   32.987;    0.000;189.96131
 585.90;  219.936;  191.983;    0.000;27.95215
 586.48;  237.954;  -35.012;    0.000;272.96595
 587.07;  217.956;   15.989;    0.000;201.96740
 587.65;  205.956;   45.989;    0.000;159.96716
 588.24;  147.961;    2.990;    0.000;144.97071
 588.82;  169.957;  -59.011;    0.000;228.96836
 589.41;  321.964; 1498.991;    0.000;-1177.02688
 589.99;  128.944;   -7.014;    0.000;135.95866
 590.57;  203.971; -131.007;    0.000;334.97855
 591.16;   99.942;   51.985;    0.000;47.95703
 591.74;  125.958;  -35.011;    0.000;160.96921
 592.32;  158.965;   11.991;    0.000;146.97427
 592.91;  146.941;   62.985;    0.000;83.95595
 593.49;   97.966;  -53.009;    0.000;150.97499
 594.08;  172.946;  -62.014;    0.000;234.95986
 594.66;   76.965;   34.991;    0.000;41.97385
 595.24;   83.968;   -2.008;    0.000;85.97595
 595.83;   48.952;  -90.012;    0.000;138.96450
 596.41;  153.980;  -24.005;    0.000;177.98518
 596.99;   65.968;    9.992;    0.000;55.97650
 597.58;  138.963;  -36.010;    0.000;174.97264
 598.16;   71.935;  -28.017;    0.000;99.95149
 598.74;  102.961;   78.990;    0.000;23.97077
 599.33;   48.949;  -39.013;    0.000;87.96246
 599.91;   67.946;  -51.014;    0.000;118.95974
 600.49;   44.940;  -41.015;    0.000;85.95547
 601.08;   90.966;   25.991;    0.000;64.97505
 601.66;   94.965;  -92.009;    0.000;186.97385
 602.24;   36.970;  -81.008;    0.000;117.97806
 602.83;    5.969;  -43.008;    0.000;48.97710
 603.41;   66.966;   -8.009;    0.000;74.97445
 603.99;   12.915;  -24.022;    0.000;36.93727
 604.58;  101.960;   -0.010;    0.000;101.97035
 605.16;   71.951;  -42.013;    0.000;113.96366
 605.74;   77.958;  -63.011;    0.000;140.96921
 606.33;   46.963;  -19.010;    0.000;65.97240
 606.91;   62.945;  -20.014;    0.000;82.95914
 607.49;    8.951;  -57.013;    0.000;65.96342
 608.07;   46.967;    8.992;    0.000;37.97559
 608.66;  -21.037;  -87.010;    0.000;65.97234
 609.24;   73.965;  -61.009;    0.000;134.97366
 609.82;  -11.045;  -27.012;    0.000;15.96643
 610.41;    6.956;  -48.011;    0.000;54.96746
 610.99;  -23.039; -103.010;    0.000;79.97125
 611.57;   43.976;  -25.006;    0.000;68.98192
 612.15;   32.956;  -40.011;    0.000;72.96752
 612.74;   -3.024;   34.994;    0.000;-38.01784
 613.32;   20.958;  -37.011;    0.000;57.96878
 613.90;   22.963;   22.990;    0.000;-0.02736
 614.48;   39.952;  -46.012;    0.000;85.96444
 615.07;   52.936;  -24.017;    0.000;76.95227
 615.65;  -10.018;  -18.005;    0.000; 7.98638
 616.23;  -15.042;  -70.011;    0.000;54.96896
 616.81;  -29.072; -112.019;    0.000;82.94631
 617.40;  -39.090;  -59.023;    0.000;19.93353
 617.98;   11.894;  -17.027;    0.000;28.92172
 618.56;   17.933; -157.017;    0.000;174.95064
 619.14;  -26.077;  -48.020;    0.000;21.94275
 619.72;  -14.076;  -76.020;    0.000;61.94347
 620.31;    7.941;   16.985;    0.000;-9.04387
 620.89;   64.951;   27.987;    0.000;36.96348
 621.47;   -1.052;  -84.014;    0.000;82.96113
 622.05;    5.951;  -88.013;    0.000;93.96390
 622.63;  -87.062; -105.016;    0.000;17.95432
 623.22;   16.969;  -55.008;    0.000;71.97686
 623.80;    7.936;  -27.017;    0.000;34.95215
 624.38;   23.957;   93.989;    0.000;-70.03170
 624.96;   44.939;  -55.016;    0.000;99.95438
 625.54;  -15.057;  -58.015;    0.000;42.95794
 626.13;    9.966;  -33.009;    0.000;42.97445
 626.71;   54.950;  396.987;    0.000;-342.03688
 627.29;   13.919;  -58.021;    0.000;71.93974
 627.87;   40.949;  -37.013;    0.000;77.96185
 628.45;   33.951;  -74.013;    0.000;107.96348
 629.03;   39.944;   33.985;    0.000; 5.95818
 629.62;   12.942;  -39.015;    0.000;51.95679
 630.20;  -26.056; -111.014;    0.000;84.95866
 630.78;   49.955;   23.988;    0.000;25.96686
 631.36;   -8.067;  -47.017;    0.000;38.95004
 631.94;    7.958;    5.989;    0.000; 1.96848
 632.52;  -25.036;    6.991;    0.000;-32.02700
 633.10;    4.933;  -19.017;    0.000;23.95028
 633.68;   -2.062;  -86.016;    0.000;83.95402
 634.27;  -14.057;  -31.015;    0.000;16.95739
 634.85;  -49.064;  -75.017;    0.000;25.95227
 635.43;   -5.084;  -78.022;    0.000;72.93793
 636.01;   18.951;  -77.013;    0.000;95.96360
 636.59;  -43.054;  -60.014;    0.000;16.96029
 637.17;   -4.096;    8.975;    0.000;-13.07105
 637.75;   10.931;  -61.018;    0.000;71.94847
 638.33;    3.928;  -73.018;    0.000;76.94691
 638.91;   16.935;   19.983;    0.000;-3.04821
 639.50;   10.914;  -84.022;    0.000;94.93600
 640.08;  -24.060;  -99.016;    0.000;74.95533
 640.66;   45.940; -116.015;    0.000;161.95544
 641.24;   33.940;   31.985;    0.000; 1.95555
 641.82;   38.940;  -34.015;    0.000;72.95566
 642.40;  -61.060;  -31.015;    0.000;-30.04423
 642.98;   20.941;  -39.015;    0.000;59.95588
 643.56;  -11.059;  -69.015;    0.000;57.95599
 644.14;  -28.059;  -16.015;    0.000;-12.04390
 644.72;  -27.059;  -36.015;    0.000; 8.95621
 645.30;   39.941;  -19.015;    0.000;58.95631
 645.88;  -46.059;  -93.015;    0.000;46.95642
 646.46;  -17.059;  -46.015;    0.000;28.95653
 647.04;  -38.058;  -31.015;    0.000;-7.04336
 647.62;   42.942;   43.985;    0.000;-1.04325
 648.20;   13.942;  -27.015;    0.000;40.95686
 648.78;  -32.058;   13.985;    0.000;-46.04303
 649.36;   28.942;   -2.015;    0.000;30.95708
 649.94;   -6.058;  -51.015;    0.000;44.95719
 650.52;  -33.058; -105.015;    0.000;71.95730
 651.11;    3.943;  -67.015;    0.000;70.95741
 651.69;   -2.057;  -26.015;    0.000;23.95752
 652.27;    8.943;  -61.015;    0.000;69.95763
 652.85;  -21.057; -143.015;    0.000;121.95774
 653.43;  -34.057;  -46.015;    0.000;11.95785
 654.01;   33.943;  -71.015;    0.000;104.95796
 654.59;    1.943;  -81.015;    0.000;82.95807
 655.17;   33.944; -112.015;    0.000;145.95818
 655.74;  -18.056;  -69.015;    0.000;50.95829
 656.32;  -11.056;  -12.014;    0.000; 0.95839
 656.90;  -14.056;  -51.014;    0.000;36.95850
 657.48;  -29.056;   77.986;    0.000;-107.04139
 658.06;   19.944;  -74.014;    0.000;93.95872
 658.64;   12.945;  -34.014;    0.000;46.95883
 659.22;   34.945; -116.014;    0.000;150.95894
 659.80;  -15.055;  -73.014;    0.000;57.95905
 660.38;    3.945;  -45.014;    0.000;48.95916
 660.96;  -18.055;  -94.014;    0.000;75.95927
 661.54;    2.945;  -69.014;    0.000;71.95938
 662.12;  -39.055;   -9.014;    0.000;-30.04051
 662.70;  -27.054;  -52.014;    0.000;24.95960
 663.28;  -36.054;   -4.014;    0.000;-32.04029
 663.86;   -0.054;   -7.014;    0.000; 6.95982
 664.44;  -69.054;   -8.014;    0.000;-61.04007
 665.02;  -41.054;   -0.014;    0.000;-41.03996
 665.60;  -80.054;  -41.014;    0.000;-39.03985
 666.18;  -15.054;  -10.014;    0.000;-5.03974
 666.75;    3.947;   40.986;    0.000;-37.03963
 667.33;   35.947;  -70.014;    0.000;105.96048
 667.91;   18.947;  130.986;    0.000;-112.03942
 668.49;  -19.053;    9.986;    0.000;-29.03931
 669.07;  -76.053;  -12.014;    0.000;-64.03920
 669.65;  -15.053;  -49.014;    0.000;33.96091
 670.23;  -30.053;  -74.014;    0.000;43.96102
 670.81;  -44.052;  -28.014;    0.000;-16.03887
 671.39;  -60.052;  -84.013;    0.000;23.96124
 671.97;    4.948;  -20.013;    0.000;24.96135
 672.54;  -10.052;  -32.013;    0.000;21.96146
 673.12;   55.948;  -13.013;    0.000;68.96157
 673.70;  -22.052;  -25.013;    0.000; 2.96168
 674.28;   -9.052;  -12.013;    0.000; 2.96179
 674.86;  -70.051;  -77.013;    0.000; 6.96190
 675.44;   49.949;  -28.013;    0.000;77.96201
 676.02;   -0.051;   23.987;    0.000;-24.03788
 676.59;  -36.051;  -26.013;    0.000;-10.03777
 677.17;  -47.051;  -27.013;    0.000;-20.03766
 677.75;  -30.051;  -50.013;    0.000;19.96245
 678.33;  -37.050; -119.013;    0.000;81.96256
 678.91;  -45.050;  -56.013;    0.000;10.96266
 679.49;   23.950;  -52.013;    0.000;75.96277
 680.06;  -11.050;  -79.013;    0.000;67.96288
 680.64;   -7.050;  -84.013;    0.000;76.96299
 681.22;   -8.050;  -77.013;    0.000;68.96310
 681.80;   -9.050; -101.013;    0.000;91.96321
 682.38;   -9.049;   -0.013;    0.000;-9.03668
 682.96;   19.951;    8.987;    0.000;10.96343
 683.53;   16.951;    1.987;    0.000;14.96354
 684.11;  -30.049;  -52.013;    0.000;21.96365
 684.69;  -18.049;  -68.013;    0.000;49.96376
 685.27;  -23.049;   28.987;    0.000;-52.03613
 685.85;  -15.049;  -27.013;    0.000;11.96398
 686.42;  -24.048;  -34.012;    0.000; 9.96409
 687.00;   23.952;  -46.012;    0.000;69.96420
 687.58;  -67.048;  -49.012;    0.000;-18.03569
 688.16;    0.952;  -93.012;    0.000;93.96442
 688.73;  -44.048;  -67.012;    0.000;22.96453
 689.31;   34.952;   48.988;    0.000;-14.03536
 689.89;   35.952;  -28.012;    0.000;63.96475
 690.47;   26.953;   71.988;    0.000;-45.03515
 691.04;   -4.047;  -14.012;    0.000; 9.96496
 691.62;  -13.047;   32.988;    0.000;-46.03493
 692.20;  -31.047;  -93.012;    0.000;61.96518
 692.78;   22.953;   -4.012;    0.000;26.96529
 693.35;   -7.047;  -23.012;    0.000;15.96540
 693.93;  -11.046;  -83.012;    0.000;71.96551
 694.51;  -71.046; -143.012;    0.000;71.96562
 695.09;  -29.046;  -98.012;    0.000;68.96573
 695.66;   -1.046;  -71.012;    0.000;69.96584
 696.24;  -53.046; -143.012;    0.000;89.96595
 696.82;    5.954;  -27.012;    0.000;32.96606
 697.39;   10.954;  -79.012;    0.000;89.96617
 697.97;  -17.045;  -82.012;    0.000;64.96628
 698.55;   -2.045; -149.012;    0.000;146.96639
 699.13;  -15.045;  -73.012;    0.000;57.96650
 699.70;   15.955; -105.012;    0.000;120.96661
 700.28;    6.955;  -71.012;    0.000;77.96672
 700.86;   -0.045;  -37.012;    0.000;36.96683
 701.43;  -41.045;  -50.012;    0.000; 8.96693
 702.01;  -45.044;  -86.011;    0.000;40.96704
 702.59;  -10.044;  -48.011;    0.000;37.96715
 703.16;   13.956; -103.011;    0.000;116.96726
 703.74;   -0.044;  -12.011;    0.000;11.96737
 704.32;   21.956;   74.989;    0.000;-53.03252
 704.89;  -39.044;  -58.011;    0.000;18.96759
 705.47;    1.956;  -52.011;    0.000;53.96770
 706.05;   16.957;  -53.011;    0.000;69.96781
 706.62;  -11.043;  -22.011;    0.000;10.96792
 707.20;   -7.043;  -72.011;    0.000;64.96803
 707.78;   26.957;  -57.011;    0.000;83.96814
 708.35;  -15.043; -105.011;    0.000;89.96825
 708.93;  -49.043;   23.989;    0.000;-73.03164
 709.51;   -6.043;  -78.011;    0.000;71.96847
 710.08;   -7.042; -112.011;    0.000;104.96858
 710.66;  -25.042;   -0.011;    0.000;-25.03131
 711.23;  -15.042;  -34.011;    0.000;18.96880
 711.81;   -3.042; -127.011;    0.000;123.96891
 712.39;   17.958;   -9.011;    0.000;26.96902
 712.96;  -42.042;  -71.011;    0.000;28.96912
 713.54;  -32.041;  -88.011;    0.000;55.96923
 714.11;  -36.041;  -82.011;    0.000;45.96934
 714.69;  -47.041;  -57.011;    0.000; 9.96945
 715.27;  -19.041;  -36.011;    0.000;16.96956
 715.84;  -12.041;  -35.011;    0.000;22.96967
 716.42;  -48.041;  -61.011;    0.000;12.96978
 716.99;  -31.041;  -47.010;    0.000;15.96989
 717.57;   -0.040;  259.990;    0.000;-260.03000
 718.15;   -5.040;  -22.010;    0.000;16.97011
 718.72;  -48.040;    2.990;    0.000;-51.02978
 719.30;   -7.040;  -90.010;    0.000;82.97033
 719.87;  -60.040; -131.010;    0.000;70.97044
 720.45;  -45.040; -100.010;    0.000;54.97055
 721.02;  -21.040;  -64.010;    0.000;42.97066
 721.60;   14.961; -114.010;    0.000;128.97077
 722.17;  -54.039;  -62.010;    0.000; 7.97088
 722.75;   -3.039;  -69.010;    0.000;65.97099
 723.33;  -37.039;  -99.010;    0.000;61.97110
 723.90;   33.961;  -10.010;    0.000;43.97120
 724.48;  -93.039;  -40.010;    0.000;-53.02869
 725.05;    7.961;  -79.010;    0.000;86.97142
 725.63;  -12.038;   25.990;    0.000;-38.02847
 726.20;   11.962;  -15.010;    0.000;26.97164
 726.78;  -23.038;  -98.010;    0.000;74.97175
 727.35;   41.962;   21.990;    0.000;19.97186
 727.93;  -34.038;  -91.010;    0.000;56.97197
 728.50;    0.962;  112.990;    0.000;-112.02792
 729.08;  -22.037;  -13.010;    0.000;-9.02781
 729.65;  -11.037;   70.990;    0.000;-82.02770
 730.23;  -33.037;  -74.010;    0.000;40.97241
 730.80;   21.963;  -35.010;    0.000;56.97252
 731.38;  -50.037;  -87.010;    0.000;36.97263
 731.95;   23.963;   47.991;    0.000;-24.02726
 732.53;  -48.037;  -34.009;    0.000;-14.02715
 733.10;   21.964;  -37.009;    0.000;58.97296
 733.68;  -15.036; -113.009;    0.000;97.97307
 734.25;    1.964;  -81.009;    0.000;82.97318
 734.82;   -2.036;  -25.009;    0.000;22.97329
 735.40;  -29.036;  -87.009;    0.000;57.97339
 735.97;    2.964;   -6.009;    0.000; 8.97350
 736.55;   20.964;  -22.009;    0.000;42.97361
 737.12;    8.965;  -32.009;    0.000;40.97372
 737.70;  -38.035; -100.009;    0.000;61.97383
 738.27;    4.965;  -51.009;    0.000;55.97394
 738.85;  -42.035; -101.009;    0.000;58.97405
 739.42;  -54.035;  -92.009;    0.000;37.97416
 739.99;   -5.035;   17.991;    0.000;-23.02573
 740.57;    4.965;  -21.009;    0.000;25.97438
 741.14;   12.966;   -7.009;    0.000;19.97449
 741.72;   14.966;  -60.009;    0.000;74.97460
 742.29;  -10.034;  -94.009;    0.000;83.97471
 742.87;  -19.034;  -80.009;    0.000;60.97482
 743.44;  -19.034;  -58.009;    0.000;38.97493
 744.01;  -36.034;  -75.009;    0.000;38.97504
 744.59;  -18.033;  -68.009;    0.000;49.97515
 745.16;   24.967;  -40.009;    0.000;64.97526
 745.73;   28.967; -106.009;    0.000;134.97537
 746.31;   -6.033;  -58.009;    0.000;51.97547
 746.88;  -13.033; -137.008;    0.000;123.97558
 747.46;  -65.033;    2.992;    0.000;-68.02431
 748.03;  -21.033;  -94.008;    0.000;72.97580
 748.60;  -50.032;  -38.008;    0.000;-12.02409
 749.18;    9.968;  -71.008;    0.000;80.97602
 749.75;  -31.032;   25.992;    0.000;-57.02387
 750.32;  -80.032; -104.008;    0.000;23.97624
 750.90;  -65.032;  -62.008;    0.000;-3.02365
 751.47;   21.968;   28.992;    0.000;-7.02354
 752.04;    2.968;  -71.008;    0.000;73.97657
 752.62;   26.969;  -81.008;    0.000;107.97668
 753.19;  -12.031;  -13.008;    0.000; 0.97679
 753.76;    1.969;  -97.008;    0.000;98.97690
 754.34;  -17.031;   -1.008;    0.000;-16.02299
 754.91;  -26.031;  -67.008;    0.000;40.97712
 755.48;  -45.031;  -26.008;    0.000;-19.02277
 756.06;   42.969;   35.992;    0.000; 6.97734
 756.63;    0.970;    9.992;    0.000;-9.02255
 757.20;   17.970; -110.008;    0.000;127.97756
 757.78;  -25.030; -109.008;    0.000;83.97766
 758.35;  -40.030;  -21.008;    0.000;-19.02223
 758.92;   30.970;  -49.008;    0.000;79.97788
 759.50;   -1.030; -123.008;    0.000;121.97799
 760.07;  -35.030;  -28.008;    0.000;-7.02190
 760.64;   35.971; -114.008;    0.000;149.97821
 761.21;   13.971;  -26.008;    0.000;39.97832
 761.79;   -4.029; -150.008;    0.000;145.97843
 762.36;   40.971;    4.993;    0.000;35.97854
 762.93;  -53.029;  -64.007;    0.000;10.97865
 763.50;  -46.029;  -56.007;    0.000; 9.97876
 764.08;    1.972;  -75.007;    0.000;76.97887
 764.65;  -28.028;  -52.007;    0.000;23.97898
 765.22;   12.972;  -49.007;    0.000;61.97909
 765.79;  -19.028;  -47.007;    0.000;27.97920
 766.37;   -4.028;  -10.007;    0.000; 5.97931
 766.94;   -1.028;  -49.007;    0.000;47.97942
 767.51;  -61.028;  -86.007;    0.000;24.97953
 768.08;  -38.027;  -18.007;    0.000;-20.02036
 768.66;  -35.027;   -5.007;    0.000;-30.02026
 769.23;  -88.027;  -48.007;    0.000;-40.02015
 769.80;  -12.027;  -98.007;    0.000;85.97996
 770.37;    2.973;  -98.007;    0.000;100.98007
 770.94;  -36.027;  -57.007;    0.000;20.98018
 771.52;  -38.027;  -80.007;    0.000;41.98029
 772.09;  -23.026;  -34.007;    0.000;10.98040
 772.66;  -50.026;   -4.007;    0.000;-46.01949
 773.23;   -6.026;   20.993;    0.000;-27.01938
 773.80;  -30.026;  -48.007;    0.000;17.98073
 774.38;  -20.026;  -92.007;    0.000;71.98084
 774.95;  -22.026;    1.993;    0.000;-24.01905
 775.52;   47.974;    7.993;    0.000;39.98106
 776.09;   -3.025;  -93.007;    0.000;89.98117
 776.66;   21.975;  -88.007;    0.000;109.98128
 777.24;  -28.025;  -43.006;    0.000;14.98139
 777.81;   13.975;   36.994;    0.000;-23.01850
 778.38;   11.975;  -57.006;    0.000;68.98161
 778.95;  -15.025;  -60.006;    0.000;44.98172
 779.52;  -35.024;  -45.006;    0.000; 9.98183
 780.09;    6.976;  102.994;    0.000;-96.01807
 780.66;    0.976;  -35.006;    0.000;35.98204
 781.24;    6.976;   15.994;    0.000;-9.01785
 781.81;  -52.024;  -81.006;    0.000;28.98226
 782.38;   10.976;  -82.006;    0.000;92.98237
 782.95;  -43.024; -106.006;    0.000;62.98248
 783.52;  -11.023;  -51.006;    0.000;39.98259
 784.09;  -31.023;  -73.006;    0.000;41.98270
 784.66;   -1.023;  -42.006;    0.000;40.98281
 785.23;    4.977; -108.006;    0.000;112.98292
 785.80;    8.977;  -93.006;    0.000;101.98303
 786.38;  -56.023;   10.994;    0.000;-67.01686
 786.95;   34.977;  -46.006;    0.000;80.98325
 787.52;  -69.022;  -24.006;    0.000;-45.01664
 788.09;    6.978;  -78.006;    0.000;84.98347
 788.66;  -30.022; -134.006;    0.000;103.98358
 789.23;   16.978;   47.994;    0.000;-31.01631
 789.80;  -13.022;  -64.006;    0.000;50.98380
 790.37;   -2.022;  -54.006;    0.000;51.98391
 790.94;   12.978;   45.994;    0.000;-33.01599
 791.51;   -8.021; -123.006;    0.000;114.98412
 792.08;   -8.021; -103.005;    0.000;94.98423
 792.65;  -22.021;  -40.005;    0.000;17.98434
 793.22;  -45.021;   31.995;    0.000;-77.01555
 793.80;  -33.021;  -37.005;    0.000; 3.98456
 794.37;   -0.021;  -41.005;    0.000;40.98467
 794.94;   30.979;   42.995;    0.000;-12.01522
 795.51;  -23.020;  -49.005;    0.000;25.98489
 796.08;   11.980;  -38.005;    0.000;49.98500
 796.65;  -43.020;  -72.005;    0.000;28.98511
 797.22;  -17.020;  -86.005;    0.000;68.98522
 797.79;   -5.020;   73.995;    0.000;-79.01467
 798.36;  -39.020;  -76.005;    0.000;36.98544
 798.93;  -16.019;  -92.005;    0.000;75.98555
 799.50;   26.981;  -48.005;    0.000;74.98566
 800.07;  -31.019;  -76.005;    0.000;44.98577
 800.64;   -6.019;  -91.005;    0.000;84.98588
 801.21;    1.981;  -67.005;    0.000;68.98599
 801.78;  -41.019;  -58.005;    0.000;16.98610
 802.35;  -17.019;  -61.005;    0.000;43.98620
 802.92;  -27.018;  -74.005;    0.000;46.98631
 803.49;  -29.018;  -41.005;    0.000;11.98642
 804.06;   13.982;  -93.005;    0.000;106.98653
 804.63;   16.982; -110.005;    0.000;126.98664
 805.20;    1.982;  -20.005;    0.000;21.98675
 805.77;  -36.018;  -74.005;    0.000;37.98686
 806.34;   21.982;  -54.005;    0.000;75.98697
 806.91;  -23.017;  -34.004;    0.000;10.98708
 807.47;  -47.017; -119.004;    0.000;71.98719
 808.04;   36.983;  -73.004;    0.000;109.98730
 808.61;  -51.017;  -39.004;    0.000;-12.01259
 809.18;  -51.017;    7.996;    0.000;-59.01248
 809.75;   -5.017;  -67.004;    0.000;61.98763
 810.32;    3.983;  -87.004;    0.000;90.98774
 810.89;  -31.016;  -66.004;    0.000;34.98785
 811.46;   -0.016;  -37.004;    0.000;36.98796
 812.03;   32.984; -132.004;    0.000;164.98807
 812.60;  -21.016; -119.004;    0.000;97.98818
 813.17;   -1.016;  -13.004;    0.000;11.98828
 813.74;   25.984;   43.996;    0.000;-18.01161
 814.31;   26.985;  -32.004;    0.000;58.98850
 814.87;  -42.015;    0.996;    0.000;-43.01139
 815.44;  -14.015;  -65.004;    0.000;50.98872
 816.01;   42.985;   43.996;    0.000;-1.01117
 816.58;  -16.015;  -88.004;    0.000;71.98894
 817.15;  -65.015;   52.996;    0.000;-118.01095
 817.72;  -28.015;  -61.004;    0.000;32.98916
 818.29;  -15.014;  -34.004;    0.000;18.98927
 818.86;   33.986;   25.996;    0.000; 7.98938
 819.42;  -36.014;  -45.004;    0.000; 8.98949
 819.99;  -12.014;  -39.004;    0.000;26.98960
 820.56;    3.986;  -80.004;    0.000;83.98971
 821.13;  -47.014;  -31.004;    0.000;-16.01018
 821.70;  -61.014; -110.004;    0.000;48.98993
 822.27;   22.987;  -10.003;    0.000;32.99004
 822.84;    5.987;  -45.003;    0.000;50.99015
 823.40;  -47.013;  -96.003;    0.000;48.99026
 823.97;    7.987;    4.997;    0.000; 2.99037
 824.54;    7.987;  -95.003;    0.000;102.99047
 825.11;  -11.013;  -94.003;    0.000;82.99058
 825.68;  -38.013;   91.997;    0.000;-130.00931
 826.24;  -60.012;  -83.003;    0.000;22.99080
 826.81;   -7.012;  -71.003;    0.000;63.99091
 827.38;  -46.012;  -87.003;    0.000;40.99102
 827.95;    4.988;  -75.003;    0.000;79.99113
 828.52;  -57.012;  -79.003;    0.000;21.99124
 829.08;  -81.012;  -31.003;    0.000;-50.00865
 829.65;  -66.012;  -51.003;    0.000;-15.00854
 830.22;   53.989;  -55.003;    0.000;108.99157
 830.79;  -66.011;  -57.003;    0.000;-9.00832
 831.36;  -36.011;  -25.003;    0.000;-11.00821
 831.92;  -21.011;   34.997;    0.000;-56.00810
 832.49;  -44.011; -131.003;    0.000;86.99201
 833.06;   -3.011;  -33.003;    0.000;29.99212
 833.63;  -24.010;  -54.003;    0.000;29.99223
 834.19;    7.990;  -60.003;    0.000;67.99234
 834.76;  -62.010;  -32.003;    0.000;-30.00755
 835.33;  -52.010;  -71.003;    0.000;18.99255
 835.90;   18.990; -124.003;    0.000;142.99266
 836.46;   23.990;  -58.003;    0.000;81.99277
 837.03;  -13.010;  -54.002;    0.000;40.99288
 837.60;    6.991;  -21.002;    0.000;27.99299
 838.17;  -37.009;   32.998;    0.000;-70.00690
 838.73;   14.991;  -33.002;    0.000;47.99321
 839.30;   -3.009;   12.998;    0.000;-16.00668
 839.87;   18.991;   -0.002;    0.000;18.99343
 840.43;  -52.009;  -16.002;    0.000;-36.00646
 841.00;  -43.009;    2.998;    0.000;-46.00635
 841.57;  -48.008;  -32.002;    0.000;-16.00624
 842.14;  -52.008;  -81.002;    0.000;28.99387
 842.70;   23.992;   11.998;    0.000;11.99398
 843.27;  -86.008;    8.998;    0.000;-95.00591
 843.84;   -1.008; -102.002;    0.000;100.99420
 844.40;  -42.008;  -75.002;    0.000;32.99431
 844.97;  -45.008;  -46.002;    0.000; 0.99442
 845.54;  -58.007;  -85.002;    0.000;26.99453
 846.10;  -14.007;  -35.002;    0.000;20.99464
 846.67;  -57.007;  -94.002;    0.000;36.99474
 847.24;  -42.007; -113.002;    0.000;70.99485
 847.80;   -1.007;  -66.002;    0.000;64.99496
 848.37;  -14.007;   -2.002;    0.000;-12.00493
 848.94;   16.994;   38.998;    0.000;-22.00482
 849.50;    1.994;   46.998;    0.000;-45.00471
 850.07;  -53.006; -122.002;    0.000;68.99540
 850.63;  -26.006;   -7.002;    0.000;-19.00449
 851.20;   -1.006; -184.002;    0.000;182.99562
 851.77;   -1.006; -114.001;    0.000;112.99573
 852.33;  -25.006;   17.999;    0.000;-43.00416
 852.90;  -26.005;  -65.001;    0.000;38.99595
 853.47;   34.995;  -23.001;    0.000;57.99606
 854.03;  -70.005;  -70.001;    0.000;-0.00383
 854.60;  -17.005;    5.999;    0.000;-23.00372
 855.16;    3.995;   34.999;    0.000;-31.00361
 855.73;    4.995;   23.999;    0.000;-19.00350
 856.30;   29.995;   12.999;    0.000;16.99661
 856.86;  -55.004;  -52.001;    0.000;-3.00328
 857.43;   -8.004;   38.999;    0.000;-47.00318
 857.99;  -10.004;  -68.001;    0.000;57.99693
 858.56;  -27.004; -104.001;    0.000;76.99704
 859.12;  -57.004;  -87.001;    0.000;29.99715
 859.69;  -55.004;  -60.001;    0.000; 4.99726
 860.26;  -54.004; -104.001;    0.000;49.99737
 860.82;  -24.003;  -54.001;    0.000;29.99748
 861.39;  -12.003;   18.999;    0.000;-31.00241
 861.95;  -20.003;  -37.001;    0.000;16.99770
 862.52;    1.997;    4.999;    0.000;-3.00219
 863.08;   17.997;  -78.001;    0.000;95.99792
 863.65;  -10.003;  -32.001;    0.000;21.99803
 864.21;    4.997;  -78.001;    0.000;82.99814
 864.78;   21.998;    7.999;    0.000;13.99825
 865.34;  -36.002;  176.999;    0.000;-213.00164
 865.91;  -41.002;  -26.001;    0.000;-15.00153
 866.47;  -52.002; -106.000;    0.000;53.99858
 867.04;  -34.002;  -30.000;    0.000;-4.00131
 867.61;   25.998;  -90.000;    0.000;115.99880
 868.17;    3.999;  -33.000;    0.000;36.99891
 868.74;    3.999;  -71.000;    0.000;74.99901
 869.30;    5.999;  -84.000;    0.000;89.99912
 869.86;  -52.001;  -31.000;    0.000;-21.00077
 870.43;   -1.001; -162.000;    0.000;160.99934
 870.99;  -79.001; -146.000;    0.000;66.99945
 871.56;   -4.001;   -7.000;    0.000; 2.99956
 872.12;   10.000; -126.000;    0.000;135.99967
 872.69;  -60.000;  -87.000;    0.000;26.99978
 873.25;   14.000;  -61.000;    0.000;74.99989
 873.82;  -30.000;  -70.000;    0.000;40.00000
 874.38;    7.000;    5.000;    0.000; 2.00000
 874.95;  -35.000;  -30.000;    0.000;-5.00000
 875.51;   19.000;  -47.000;    0.000;66.00000
 876.08;  -59.000; -104.000;    0.000;45.00000
 876.64;  -18.000;  -93.000;    0.000;75.00000
 877.20;  -37.000;  -73.000;    0.000;36.00000
 877.77;  -21.000;  -61.000;    0.000;40.00000
 878.33;  -59.000; -115.000;    0.000;56.00000
 878.90;   -9.000;    0.000;    0.000;-9.00000
 879.46;  -87.000;  -96.000;    0.000; 9.00000
 880.03;    0.000;   -6.000;    0.000; 6.00000
 880.59;  -29.000;  -52.000;    0.000;23.00000
 881.15;   11.000;   -3.000;    0.000;14.00000
 881.72;   -1.000;  -85.000;    0.000;84.00000
 882.28;   -3.000;  -38.000;    0.000;35.00000
 882.85;  -76.000;  -80.000;    0.000; 4.00000
 883.41;   -2.000;   -8.000;    0.000; 6.00000
 883.97;   35.000;  259.000;    0.000;-224.00000
 884.54;  -68.000;  -62.000;    0.000;-6.00000
 885.10;  -22.000;  -98.000;    0.000;76.00000
 885.66;  -17.000;   30.000;    0.000;-47.00000
 886.23;   -1.000;  -75.000;    0.000;74.00000
 886.79;   18.000;  -44.000;    0.000;62.00000
 887.36;  -28.000;  -62.000;    0.000;34.00000
 887.92;  -48.000; -115.000;    0.000;67.00000
 888.48;  -87.000; -126.000;    0.000;39.00000
 889.05;  -18.000; -109.000;    0.000;91.00000
 889.61;  -57.000;  -71.000;    0.000;14.00000
 890.17;  -29.000; -119.000;    0.000;90.00000
 890.74;  -60.000;  -51.000;    0.000;-9.00000
 891.30;  -15.000;  -49.000;    0.000;34.00000
 891.86;  -43.000; -100.000;    0.000;57.00000
 892.43;   24.000; -113.000;    0.000;137.00000
 892.99;   15.000;  -47.000;    0.000;62.00000
 893.55;  -53.000; -133.000;    0.000;80.00000
 894.11;    8.000;  -44.000;    0.000;52.00000
 894.68;  -17.000;    8.000;    0.000;-25.00000
 895.24;  -28.000;   90.000;    0.000;-118.00000
 895.80;    4.000;  -69.000;    0.000;73.00000
 896.37;  -55.000;  -60.000;    0.000; 5.00000
 896.93;  -23.000;   24.000;    0.000;-47.00000
 897.49;  -53.000;  -65.000;    0.000;12.00000
 898.05;   21.000;  -15.000;    0.000;36.00000
 898.62;  -20.000;   34.000;    0.000;-54.00000
 899.18;   29.000;  -72.000;    0.000;101.00000
 899.74;   16.000;  105.000;    0.000;-89.00000
 900.31;   22.000;  -72.000;    0.000;94.00000
 900.87;  -12.000; -117.000;    0.000;105.00000
 901.43;  -29.000; -125.000;    0.000;96.00000
 901.99;    8.000;  -29.000;    0.000;37.00000
 902.56;  -17.000;   -7.000;    0.000;-10.00000
 903.12;  -15.000;  173.000;    0.000;-188.00000
 903.68;   -1.000;  -10.000;    0.000; 9.00000
 904.24;  -67.000;  -54.000;    0.000;-13.00000
 904.80;    5.000;  -42.000;    0.000;47.00000
 905.37;  -67.000; -103.000;    0.000;36.00000
 905.93;  -45.000;  -27.000;    0.000;-18.00000
 906.49;  -69.000;    0.000;    0.000;-69.00000
 907.05;    1.000;  -71.000;    0.000;72.00000
 907.61;  -32.000;  -66.000;    0.000;34.00000
 908.18;  -19.000;   49.000;    0.000;-68.00000
 908.74;  -55.000;  -79.000;    0.000;24.00000
 909.30;   -8.000;  -76.000;    0.000;68.00000
 909.86;  -60.000;  -29.000;    0.000;-31.00000
 910.42;   17.000;  -41.000;    0.000;58.00000
 910.99;    6.000;  -25.000;    0.000;31.00000
 911.55;   -1.000;  -97.000;    0.000;96.00000
 912.11;  -70.000;  -37.000;    0.000;-33.00000
 912.67;  -49.000;  -20.000;    0.000;-29.00000
 913.23;  -58.000;  -78.000;    0.000;20.00000
 913.79;   54.000;  -26.000;    0.000;80.00000
 914.36;  -23.000;  -94.000;    0.000;71.00000
 914.92;   14.000;   10.000;    0.000; 4.00000
 915.48;  -15.000;  -55.000;    0.000;40.00000
 916.04;  -22.000;   85.000;    0.000;-107.00000
 916.60;  -55.000;  -64.000;    0.000; 9.00000
 917.16;  -35.000; -173.000;    0.000;138.00000
 917.72;  -63.000;  -66.000;    0.000; 3.00000
 918.28;   -1.000;  -99.000;    0.000;98.00000
 918.85;  -35.000;  -41.000;    0.000; 6.00000
 919.41;    1.000;  -44.000;    0.000;45.00000
 919.97;  -24.000; -160.000;    0.000;136.00000
 920.53;  -13.000;  -17.000;    0.000; 4.00000
 921.09;  -17.000;   -1.000;    0.000;-16.00000
 921.65;   29.000;  -52.000;    0.000;81.00000
 922.21;  -10.000; -103.000;    0.000;93.00000
 922.77;  -39.000;  -82.000;    0.000;43.00000
 923.33;  -63.000;  -38.000;    0.000;-25.00000
 923.89;  -18.000;  -72.000;    0.000;54.00000
 924.45;  -24.000;  -65.000;    0.000;41.00000
 925.01;    0.000;  -45.000;    0.000;45.00000
 925.58;  -18.000;  -94.000;    0.000;76.00000
 926.14;  -35.000;  -79.000;    0.000;44.00000
 926.70;  -15.000;  -93.000;    0.000;78.00000
 927.26;  -15.000;   18.000;    0.000;-33.00000
 927.82;   -8.000;  -50.000;    0.000;42.00000
 928.38;   -6.000;  -83.000;    0.000;77.00000
 928.94;  -28.000;  -89.000;    0.000;61.00000
 929.50;   -7.000;  -18.000;    0.000;11.00000
 930.06;  -36.000; -128.000;    0.000;92.00000
 930.62;  -69.000; -109.000;    0.000;40.00000
 931.18;  -41.000;  -17.000;    0.000;-24.00000
 931.74;  -15.000;  -92.000;    0.000;77.00000
 932.30;  -60.000;  -18.000;    0.000;-42.00000
 932.86;   15.000;  -88.000;    0.000;103.00000
 933.42;   -7.000;    2.000;    0.000;-9.00000
 933.98;   -8.000;    6.000;    0.000;-14.00000
 934.54;  -46.000;  -35.000;    0.000;-11.00000
 935.10;  -97.000;  -75.000;    0.000;-22.00000
 935.66;  -49.000;  -85.000;    0.000;36.00000
 936.22;  -23.000;  -47.000;    0.000;24.00000
 936.78;  -86.000; -124.000;    0.000;38.00000
 937.34;    0.000;  -21.000;    0.000;21.00000
 937.90;  -29.000;  -85.000;    0.000;56.00000
 938.46;  -40.000; -102.000;    0.000;62.00000
 939.02;  -18.000;  -93.000;    0.000;75.00000
 939.58;   14.000; -134.000;    0.000;148.00000
 940.14;  -18.000;  -80.000;    0.000;62.00000
 940.70;   30.000;   98.000;    0.000;-68.00000
 941.25;  -58.000;  -36.000;    0.000;-22.00000
 941.81;  -56.000; -118.000;    0.000;62.00000
 942.37;   -7.000;   18.000;    0.000;-25.00000
 942.93;  -18.000; -100.000;    0.000;82.00000
 943.49;  -11.000;  -44.000;    0.000;33.00000
 944.05;   20.000;  -50.000;    0.000;70.00000
 944.61;  -40.000;  -26.000;    0.000;-14.00000
 945.17;  -67.000;  -33.000;    0.000;-34.00000
 945.73;  -21.000;  -81.000;    0.000;60.00000
 946.29;    1.000;  -34.000;    0.000;35.00000
 946.85;  -58.000; -100.000;    0.000;42.00000
 947.40;  -45.000; -119.000;    0.000;74.00000
 947.96;  -44.000;  -64.000;    0.000;20.00000
 948.52;  -38.000;  -72.000;    0.000;34.00000
 949.08;  -58.000;  -38.000;    0.000;-20.00000
 949.64;   58.000;   24.000;    0.000;34.00000
 950.20;  -91.000;  -83.000;    0.000;-8.00000
 950.76;  -33.000;  -72.000;    0.000;39.00000
 951.32;  -19.000;  -53.000;    0.000;34.00000
 951.87;  -56.000;  -19.000;    0.000;-37.00000
 952.43;   -3.000;   11.000;    0.000;-14.00000
 952.99;  -31.000;   -7.000;    0.000;-24.00000
 953.55;  -49.000;  -85.000;    0.000;36.00000
 954.11;   -5.000; -112.000;    0.000;107.00000
 954.67;  -12.000;  -63.000;    0.000;51.00000
 955.22;    9.000;  -70.000;    0.000;79.00000
 955.78;  -26.000;   79.000;    0.000;-105.00000
 956.34;   -4.000;  -22.000;    0.000;18.00000
 956.90;  -19.000;  -85.000;    0.000;66.00000
 957.46;  -55.000;  -55.000;    0.000; 0.00000
 958.01;  -64.000;    4.000;    0.000;-68.00000
 958.57;   12.000;  -10.000;    0.000;22.00000
 959.13;   28.000;  -48.000;    0.000;76.00000
 959.69;  -19.000;  -86.000;    0.000;67.00000
 960.25;   -2.000;  -41.000;    0.000;39.00000
 960.80;   -7.000;  -22.000;    0.000;15.00000
 961.36;  -58.000;  -36.000;    0.000;-22.00000
 961.92;  -61.000; -138.000;    0.000;77.00000
 962.48;  -56.000;  -84.000;    0.000;28.00000
 963.03;   44.000;  -48.000;    0.000;92.00000
 963.59;  -32.000;    6.000;    0.000;-38.00000
 964.15;    0.000;  -28.000;    0.000;28.00000
 964.71;   13.000;  -42.000;    0.000;55.00000
 965.26;  -47.000;  -54.000;    0.000; 7.00000
 965.82;  -20.000;  -19.000;    0.000;-1.00000
 966.38;   11.000;  -65.000;    0.000;76.00000
 966.94;   -6.000; -117.000;    0.000;111.00000
 967.49;  -29.000; -107.000;    0.000;78.00000
 968.05;  -10.000;  -94.000;    0.000;84.00000
 968.61;   17.000;   43.000;    0.000;-26.00000
 969.17;  -13.000;  -84.000;    0.000;71.00000
 969.72;  -30.000; -122.000;    0.000;92.00000
 970.28;   -1.000;   11.000;    0.000;-12.00000
 970.84;  -60.000;  -71.000;    0.000;11.00000
 971.39;  -18.000;   14.000;    0.000;-32.00000
 971.95;  -44.000; -104.000;    0.000;60.00000
 972.51;  -11.000; -112.000;    0.000;101.00000
 973.06;   16.000;  -20.000;    0.000;36.00000
 973.62;  -12.000;  -33.000;    0.000;21.00000
 974.18;   -4.000;  -51.000;    0.000;47.00000
 974.73;  -10.000; -117.000;    0.000;107.00000
 975.29;   27.000;   46.000;    0.000;-19.00000
 975.85;  -44.000;   33.000;    0.000;-77.00000
 976.40;   17.000;   26.000;    0.000;-9.00000
 976.96;  -30.000;  -93.000;    0.000;63.00000
 977.52;   -8.000;   22.000;    0.000;-30.00000
 978.07;  -21.000;  -92.000;    0.000;71.00000
 978.63;   27.000;  -61.000;    0.000;88.00000
 979.19;  -76.000;  -96.000;    0.000;20.00000
 979.74;   14.000;   16.000;    0.000;-2.00000
 980.30;  -74.000; -142.000;    0.000;68.00000
 980.85;   10.000;    0.000;    0.000;10.00000
 981.41;  -57.000;  -86.000;    0.000;29.00000
 981.97;  -47.000; -102.000;    0.000;55.00000
 982.52;  -55.000; -113.000;    0.000;58.00000
 983.08;  -38.000; -109.000;    0.000;71.00000
 983.63;  -33.000;  -71.000;    0.000;38.00000
 984.19;  -46.000;  -33.000;    0.000;-13.00000
 984.75;  -42.000; -102.000;    0.000;60.00000
 985.30;   -9.000; -108.000;    0.000;99.00000
 985.86;  -37.000;  -66.000;    0.000;29.00000
 986.41;  -20.000;  -77.000;    0.000;57.00000
 986.97;   13.000;  -90.000;    0.000;103.00000
 987.52;  -22.000; -103.000;    0.000;81.00000
 988.08;  -85.000; -121.000;    0.000;36.00000
 988.64;  -10.000;  -87.000;    0.000;77.00000
 989.19;  -54.000; -112.000;    0.000;58.00000
 989.75;  -71.000;    7.000;    0.000;-78.00000
 990.30;  -11.000; -125.000;    0.000;114.00000
 990.86;   24.000;  -60.000;    0.000;84.00000
 991.41;  -69.000;  -89.000;    0.000;20.00000
 991.97;    8.000;  -22.000;    0.000;30.00000
 992.52;  -18.000; -114.000;    0.000;96.00000
 993.08;  -21.000; -114.000;    0.000;93.00000
 993.63;    6.000;  -53.000;    0.000;59.00000
 994.19;  -10.000;  -18.000;    0.000; 8.00000
 994.74;  -44.000; -126.000;    0.000;82.00000
 995.30;   12.000; -125.000;    0.000;137.00000
 995.85;  -51.000;  -86.000;    0.000;35.00000
 996.41;   -2.000;  -72.000;    0.000;70.00000
 996.96;  -25.000;   -2.000;    0.000;-23.00000
 997.52;   45.000;   45.000;    0.000; 0.00000
 998.07;  -34.000;   -6.000;    0.000;-28.00000
 998.63;  -33.000;  -97.000;    0.000;64.00000
 999.18;  -39.000;  103.000;    0.000;-142.00000
 999.74;   -8.000;  -43.000;    0.000;35.00000
1000.29;  -44.000;  -49.000;    0.000; 5.00000
1000.85;  -50.000;  -39.000;    0.000;-11.00000
1001.40;   -9.000;  -30.000;    0.000;21.00000
1001.96;    3.000;  -96.000;    0.000;99.00000
1002.51;  -12.000; -103.000;    0.000;91.00000
1003.06;   -5.000;  -94.000;    0.000;89.00000
1003.62;  -15.000;   -1.000;    0.000;-14.00000
1004.17;  -44.000; -111.000;    0.000;67.00000
1004.73;  -35.000;  -93.000;    0.000;58.00000
1005.28;   -3.000;   77.000;    0.000;-80.00000
1005.83;  -59.000;  -80.000;    0.000;21.00000
1006.39;  -43.000; -146.000;    0.000;103.00000
1006.94;  -48.000; -103.000;    0.000;55.00000
1007.50;   19.000;   28.000;    0.000;-9.00000
1008.05;  -16.000;  -47.000;    0.000;31.00000
1008.60;    3.000;  -88.000;    0.000;91.00000
1009.16;  -56.000;  -50.000;    0.000;-6.00000
1009.71;  -47.000;   21.000;    0.000;-68.00000
1010.27;  -57.000;  -89.000;    0.000;32.00000
1010.82;   -7.000;  -97.000;    0.000;90.00000
1011.37;  -21.000;  -11.000;    0.000;-10.00000
1011.93;    7.000;   13.000;    0.000;-6.00000
1012.48;  -88.000;  -61.000;    0.000;-27.00000
1013.03;   -6.000;  -74.000;    0.000;68.00000
1013.59;  -32.000;  -16.000;    0.000;-16.00000
1014.14;  -42.000;  -69.000;    0.000;27.00000
1014.69;  -91.000; -129.000;    0.000;38.00000
1015.25;   -7.000;   66.000;    0.000;-73.00000
1015.80;  -11.000;  -14.000;    0.000; 3.00000
1016.35;  -87.000; -124.000;    0.000;37.00000
1016.91;  -39.000; -140.000;    0.000;101.00000
1017.46;  -15.000; -122.000;    0.000;107.00000
1018.01;   18.000;  -42.000;    0.000;60.00000
1018.57;  -51.000; -115.000;    0.000;64.00000
1019.12;  -50.000; -101.000;    0.000;51.00000
1019.67;  -33.000;   10.000;    0.000;-43.00000
1020.23;  -70.000;  -22.000;    0.000;-48.00000
1020.78;  -14.000; -187.000;    0.000;173.00000
1021.33;  -16.000;  -89.000;    0.000;73.00000
1021.88;   48.000;    4.000;    0.000;44.00000
1022.44;  -61.000;   10.000;    0.000;-71.00000
1022.99;    4.000;   -5.000;    0.000; 9.00000
1023.54;  -27.000;  -85.000;    0.000;58.00000
1024.09;   53.000;   38.000;    0.000;15.00000
1024.65;  -30.000;  -53.000;    0.000;23.00000
1025.20;  -36.000; -105.000;    0.000;69.00000
1025.75;  -60.000;  -42.000;    0.000;-18.00000
1026.30;  -33.000;  -44.000;    0.000;11.00000
1026.86; -100.000; -104.000;    0.000; 4.00000
1027.41;    4.000;  -48.000;    0.000;52.00000
1027.96;  -72.000;  -34.000;    0.000;-38.00000
1028.51;  -55.000;   87.000;    0.000;-142.00000
1029.07;  -61.000;  -93.000;    0.000;32.00000
1029.62;  -51.000;  -70.000;    0.000;19.00000
1030.17;   -8.000;  -53.000;    0.000;45.00000
1030.72;   17.000;  -29.000;    0.000;46.00000
1031.27;   -8.000;  -72.000;    0.000;64.00000
1031.83;  -52.000;  -58.000;    0.000; 6.00000
1032.38;   16.000;   24.000;    0.000;-8.00000
1032.93;  -39.000;  -82.000;    0.000;43.00000
1033.48;  -40.000;  -48.000;    0.000; 8.00000
1034.03;   31.000; -100.000;    0.000;131.00000
1034.58;  -74.000;  -24.000;    0.000;-50.00000
1035.14;  -51.000; -128.000;    0.000;77.00000
1035.69;  -14.000; -126.000;    0.000;112.00000
1036.24;  -45.000;  -66.000;    0.000;21.00000
1036.79;  -39.000;  -77.000;    0.000;38.00000
1037.34;   -8.000; -100.000;    0.000;92.00000
1037.89;  -18.000;  -99.000;    0.000;81.00000
1038.45;  -16.000; -113.000;    0.000;97.00000
1039.00;  -33.000; -132.000;    0.000;99.00000
1039.55;    5.000; -104.000;    0.000;109.00000
1040.10;   -8.000;  -57.000;    0.000;49.00000
1040.65;   20.000;  -95.000;    0.000;115.00000
1041.20;  -24.000; -102.000;    0.000;78.00000
1041.75;  -88.000;  -74.000;    0.000;-14.00000
1042.30;  -38.000;  -93.000;    0.000;55.00000
1042.85;   47.000;  -56.000;    0.000;103.00000
1043.41;   -6.000;  -25.000;    0.000;19.00000
1043.96;  -35.000; -123.000;    0.000;88.00000
1044.51;  -50.000;  -64.000;    0.000;14.00000
1045.06;  -56.000;   16.000;    0.000;-72.00000
1045.61;  -61.000; -109.000;    0.000;48.00000
1046.16;  -30.000;    6.000;    0.000;-36.00000
1046.71;  -16.000;  -61.000;    0.000;45.00000
1047.26;   -4.000;  -70.000;    0.000;66.00000
1047.81;  -54.000; -145.000;    0.000;91.00000
1048.36;    0.000; -112.000;    0.000;112.00000
1048.91;   87.000;  834.000;    0.000;-747.00000
1049.46;    7.000;   60.000;    0.000;-53.00000
1050.01;  -46.000;  -50.000;    0.000; 4.00000
1050.56;   16.000;  -80.000;    0.000;96.00000
1051.11;  -24.000;    5.000;    0.000;-29.00000
1051.66;   -2.000;  -71.000;    0.000;69.00000
1052.21;  -89.000;  -57.000;    0.000;-32.00000
1052.76;   -2.000;  -13.000;    0.000;11.00000
1053.31;  -74.000;  -89.000;    0.000;15.00000
1053.86;  -23.000;  -51.000;    0.000;28.00000
1054.41;  -15.000;  -71.000;    0.000;56.00000
1054.96;  -26.000;  -52.000;    0.000;26.00000
1055.51;   13.000;  156.000;    0.000;-143.00000
1056.06;    6.000; -122.000;    0.000;128.00000
1056.61;  -50.000;   17.000;    0.000;-67.00000
1057.16;  -49.000; -101.000;    0.000;52.00000
1057.71;  -51.000;  -79.000;    0.000;28.00000
1058.26;  -11.000; -128.000;    0.000;117.00000
1058.81;  -41.000;  -50.000;    0.000; 9.00000
1059.36;  -34.000;  -99.000;    0.000;65.00000
1059.91;  -69.000;  -12.000;    0.000;-57.00000
1060.46;  -15.000;   -9.000;    0.000;-6.00000
1061.01;  -68.000;  -39.000;    0.000;-29.00000
1061.56;   12.000; -101.000;    0.000;113.00000
1062.11;  -55.000;  -77.000;    0.000;22.00000
1062.66;  -74.000;  -80.000;    0.000; 6.00000
1063.21;  -40.000; -132.000;    0.000;92.00000
1063.76;  -59.000;  -75.000;    0.000;16.00000
1064.31;  -40.000;  -42.000;    0.000; 2.00000
1064.86;  -25.000;  -86.000;    0.000;61.00000
1065.40;  -57.000;   29.000;    0.000;-86.00000
1065.95;  -21.000;  -38.000;    0.000;17.00000
1066.50;  -44.000;  -91.000;    0.000;47.00000
1067.05;  -19.000;  -81.000;    0.000;62.00000
1067.60;  -13.000;  -70.000;    0.000;57.00000
1068.15;    2.000;  -69.000;    0.000;71.00000
1068.70;    7.000;  -92.000;    0.000;99.00000
1069.25;   15.000;  -55.000;    0.000;70.00000
1069.79;  -32.000;  -90.000;    0.000;58.00000
1070.34;  -18.000; -115.000;    0.000;97.00000
1070.89;   31.000; -102.000;    0.000;133.00000
1071.44;   26.000;  -64.000;    0.000;90.00000
1071.99;  -35.000;  153.000;    0.000;-188.00000
1072.54;   15.000; -101.000;    0.000;116.00000
1073.09;  -27.000;  -97.000;    0.000;70.00000
1073.63;  -10.000;  -27.000;    0.000;17.00000
1074.18;  -49.000;  -73.000;    0.000;24.00000
1074.73;  -29.000;  -91.000;    0.000;62.00000
1075.28;  -29.000;   20.000;    0.000;-49.00000
1075.83;   21.000;  -34.000;    0.000;55.00000
1076.38;  -59.000;  -93.000;    0.000;34.00000
1076.92;   -2.000;  -76.000;    0.000;74.00000
1077.47;  -27.000;  -37.000;    0.000;10.00000
1078.02;  -30.000;   34.000;    0.000;-64.00000
1078.57;  -52.000; -126.000;    0.000;74.00000
1079.11;  -37.000; -118.000;    0.000;81.00000
1079.66;  -57.000; -151.000;    0.000;94.00000
1080.21;  -29.000;  -38.000;    0.000; 9.00000
1080.76;  -63.000;  -56.000;    0.000;-7.00000
1081.31;  -47.000;  -95.000;    0.000;48.00000
1081.85;  -31.000;  -58.000;    0.000;27.00000
1082.40;  -44.000;  -25.000;    0.000;-19.00000
1082.95;  -53.000;  -56.000;    0.000; 3.00000
1083.50;  -17.000;  -72.000;    0.000;55.00000
1084.04;  -24.000;  -53.000;    0.000;29.00000
1084.59;   33.000;  -57.000;    0.000;90.00000
1085.14;  -44.000; -150.000;    0.000;106.00000
1085.69;  -18.000;  -64.000;    0.000;46.00000
1086.23;  -41.000;  -29.000;    0.000;-12.00000
1086.78;  -41.000;    6.000;    0.000;-47.00000
1087.33;  -46.000;   -2.000;    0.000;-44.00000
1087.87;  -13.000;  -71.000;    0.000;58.00000
1088.42;  -91.000;   17.000;    0.000;-108.00000
1088.97;  -56.000; -110.000;    0.000;54.00000
1089.52;  -37.000;  -48.000;    0.000;11.00000
1090.06;   42.000;  -91.000;    0.000;133.00000
1090.61;    9.000; -101.000;    0.000;110.00000
1091.16;   39.000;  -51.000;    0.000;90.00000
1091.70;  -50.000;  -82.000;    0.000;32.00000
1092.25;  -34.000;  -46.000;    0.000;12.00000
1092.80;  -95.000;  -45.000;    0.000;-50.00000
1093.34;   -9.000;  -64.000;    0.000;55.00000
1093.89;  -31.000;  -67.000;    0.000;36.00000
1094.44;  -28.000;  -15.000;    0.000;-13.00000
1094.98;  -11.000;   58.000;    0.000;-69.00000
1095.53;  -21.000;  -80.000;    0.000;59.00000
1096.07;  -37.000;  -25.000;    0.000;-12.00000
1096.62;   23.000; -103.000;    0.000;126.00000
1097.17;  -32.000;   -5.000;    0.000;-27.00000
1097.71;  -41.000;  -69.000;    0.000;28.00000
1098.26;  -35.000; -117.000;    0.000;82.00000
1098.81;  -38.000;  -42.000;    0.000; 4.00000
1099.35;  -65.000; -117.000;    0.000;52.00000
1099.90;    9.000;  -30.000;    0.000;39.00000
1100.44;  -43.000;  -82.000;    0.000;39.00000

