540-550_38mA_4.08V_1701237U1
Integration time [ms]: 100.000
Averaging Nr. [scans]: 1
Smoothing Nr. [pixels]: 0
Data measured with spectrometer [name]: 1701237U1
Wave   ;Sample   ;Dark     ;Reference;Scope Corrected for Dark
[nm]   ;[counts] ;[counts] ;[counts] ;[counts] 

 173.88;   -2.017;  -14.009;    0.000;11.99217
 174.48;   28.989;  -57.006;    0.000;85.99490
 175.09;  -47.004;    4.998;    0.000;-52.00189
 175.69;   64.989;    8.994;    0.000;55.99505
 176.30;   -7.017;   65.991;    0.000;-73.00813
 176.90;   -6.006;  -12.003;    0.000; 5.99719
 177.51;  -27.004;  -12.002;    0.000;-15.00171
 178.11;   -5.012;   20.993;    0.000;-26.00578
 178.72;  -69.007;  -19.004;    0.000;-50.00321
 179.32;   14.986;  -80.008;    0.000;94.99331
 179.93;  -41.014;  -64.007;    0.000;22.99362
 180.54;   14.996;   40.998;    0.000;-26.00182
 181.14;   -2.017;  -11.009;    0.000; 8.99206
 181.75;    9.995;   44.997;    0.000;-35.00227
 182.35;    5.996;  -54.002;    0.000;59.99835
 182.96;  -10.007;   76.996;    0.000;-87.00348
 183.56;  -14.018;   16.990;    0.000;-31.00849
 184.17;   23.990;  148.995;    0.000;-125.00466
 184.77;  -35.004;  -17.002;    0.000;-18.00174
 185.38;   23.989;    7.994;    0.000;15.99479
 185.98;   -1.012;   50.994;    0.000;-52.00547
 186.59;   11.993;    8.996;    0.000; 2.99685
 187.19;  -38.009;   10.995;    0.000;-49.00437
 187.80;    2.984;  -30.008;    0.000;32.99257
 188.40;  -24.024;   21.987;    0.000;-46.01122
 189.01;   29.988;  -34.006;    0.000;63.99455
 189.61; -100.008;  -27.004;    0.000;-73.00352
 190.21;   15.984;  -46.009;    0.000;61.99252
 190.82;  -76.014;   -3.008;    0.000;-73.00664
 191.42;    0.982;  -46.010;    0.000;46.99153
 192.03;    6.981;  -61.010;    0.000;67.99107
 192.63;   12.978;   -7.011;    0.000;19.98995
 193.24;  -24.005;   36.997;    0.000;-61.00249
 193.84;    6.974;  -37.014;    0.000;43.98793
 194.45;  -11.022;  -17.012;    0.000; 5.98982
 195.05;  -14.014;  -76.008;    0.000;61.99332
 195.66;  -23.020;   -1.011;    0.000;-22.00939
 196.26;   64.973;   10.986;    0.000;53.98755
 196.87;  -26.024;   -4.013;    0.000;-22.01097
 197.47;   -5.019;   21.990;    0.000;-27.00891
 198.07;  -27.026;  -50.014;    0.000;22.98789
 198.68;   34.973;  -94.015;    0.000;128.98718
 199.28;  -51.016;    9.991;    0.000;-61.00750
 199.89;   33.966;  -19.018;    0.000;52.98406
 200.49;   27.974;   20.986;    0.000; 6.98780
 201.10;   30.980;   17.989;    0.000;12.99048
 201.70;    9.972;   26.985;    0.000;-17.01311
 202.31;  -11.012;  -70.007;    0.000;58.99426
 202.91;  -41.013;   24.993;    0.000;-66.00587
 203.51;   12.979;  -47.011;    0.000;59.99028
 204.12;    7.997;  -31.002;    0.000;38.99864
 204.72;   31.993;   39.996;    0.000;-8.00348
 205.33;  -27.012;  -49.007;    0.000;21.99424
 205.93;   55.985;  -21.008;    0.000;76.99288
 206.53;  -55.017;  -39.009;    0.000;-16.00794
 207.14;   -9.016; -109.009;    0.000;99.99235
 207.74;  -64.016;   45.992;    0.000;-110.00726
 208.35;   26.981;  -50.010;    0.000;76.99101
 208.95;  -26.016;   -0.009;    0.000;-26.00754
 209.55;   58.984;  206.991;    0.000;-148.00767
 210.16;  -30.019;  -10.010;    0.000;-20.00897
 210.76;   -7.018;  -30.010;    0.000;22.99153
 211.37;  -16.017;  -79.009;    0.000;62.99189
 211.97;   39.989;  -25.006;    0.000;64.99474
 212.57;   17.975;  -30.014;    0.000;47.98815
 213.18;  -24.020;  -58.011;    0.000;33.99048
 213.78;   -5.023; -103.012;    0.000;97.98931
 214.38;  -11.016;  -23.009;    0.000;11.99255
 214.99;  -26.020;   13.989;    0.000;-40.00952
 215.59;   23.976;  -36.013;    0.000;59.98881
 216.20;  -40.026;  -27.014;    0.000;-13.01229
 216.80;   21.975;  -75.013;    0.000;96.98839
 217.40;  -35.019;  -15.010;    0.000;-20.00899
 218.01;   -8.028;  -26.015;    0.000;17.98694
 218.61;  -32.023;  -50.012;    0.000;17.98949
 219.21;  -23.016;    0.991;    0.000;-24.00759
 219.82;   -5.017;  186.991;    0.000;-192.00800
 220.42;  -11.018;  -65.010;    0.000;53.99165
 221.02;  -50.033;  -59.018;    0.000; 8.98461
 221.63;   32.964; -120.019;    0.000;152.98325
 222.23;   16.976;  -73.013;    0.000;89.98879
 222.83;   -2.018;  -20.010;    0.000;17.99160
 223.44;  -35.012;  -50.007;    0.000;14.99424
 224.04;  -50.036;  -21.019;    0.000;-29.01693
 224.64;   22.973;  -94.014;    0.000;116.98740
 225.25;   74.982;  -24.009;    0.000;98.99178
 225.85;  -17.014;  -30.007;    0.000;12.99349
 226.45;   16.976;   -8.013;    0.000;24.98876
 227.06;  -47.020;   77.989;    0.000;-125.00941
 227.66;   33.983;   97.991;    0.000;-64.00785
 228.26;   -8.022;  -10.012;    0.000; 1.98971
 228.87;   -4.022;  -14.012;    0.000; 9.98953
 229.47;  -55.019;   -0.010;    0.000;-55.00890
 230.07;   12.976;  -26.013;    0.000;38.98892
 230.68;   30.989;    2.994;    0.000;27.99492
 231.28;   76.975;   -4.014;    0.000;80.98815
 231.88;  -24.023;  186.988;    0.000;-211.01069
 232.48;   38.987;  -37.007;    0.000;75.99406
 233.09;  -39.015;  -13.008;    0.000;-26.00684
 233.69;   31.982;  -32.010;    0.000;63.99138
 234.29;  -13.018;   -0.010;    0.000;-13.00840
 234.90;   28.975;   15.987;    0.000;12.98839
 235.50;  -48.037;  -52.020;    0.000; 3.98274
 236.10;   -3.017;  -34.009;    0.000;30.99187
 236.70;   19.976;  -28.013;    0.000;47.98896
 237.31;   23.974; -117.014;    0.000;140.98786
 237.91;  -61.025;   -0.013;    0.000;-61.01170
 238.51;   16.985;  -61.008;    0.000;77.99307
 239.11;  -45.001;   40.999;    0.000;-86.00064
 239.72;   32.972;  -33.015;    0.000;65.98676
 240.32;  -42.009;   -4.005;    0.000;-38.00415
 240.92;   -2.024;   52.987;    0.000;-55.01110
 241.53;  -31.028;   35.985;    0.000;-67.01319
 242.13;    5.979;   48.989;    0.000;-43.00979
 242.73;  -39.017;   39.991;    0.000;-79.00800
 243.33;  -24.006;  -31.003;    0.000; 6.99734
 243.93;  -39.025;    2.987;    0.000;-42.01176
 244.54;   22.981;  -15.010;    0.000;37.99110
 245.14;   -7.021;  -29.011;    0.000;21.99028
 245.74;   34.976;   58.987;    0.000;-24.01135
 246.34;  -48.022;   16.988;    0.000;-65.01049
 246.95;   16.974;  -84.014;    0.000;100.98773
 247.55;  -20.023;  -41.012;    0.000;20.98942
 248.15;   -5.032;   -4.017;    0.000;-1.01482
 248.75;  -38.016;   21.991;    0.000;-60.00759
 249.36;    8.969;  -53.017;    0.000;61.98531
 249.96;  -19.014;  -78.008;    0.000;58.99325
 250.56;   24.977;   13.988;    0.000;10.98942
 251.16;   25.983;  -68.009;    0.000;93.99186
 251.76;  -32.022;   37.988;    0.000;-70.01012
 252.37;  -71.015;   41.992;    0.000;-113.00715
 252.97;   20.979;  -30.011;    0.000;50.99028
 253.57;  -97.019;   10.990;    0.000;-108.00890
 254.17;    9.974;   22.986;    0.000;-13.01196
 254.77;    7.984;   -5.008;    0.000;12.99266
 255.38;   48.974;  -92.014;    0.000;140.98797
 255.98;  -35.007;    4.996;    0.000;-40.00323
 256.58;   25.984;   47.992;    0.000;-22.00730
 257.18;  -91.021;  -38.011;    0.000;-53.00961
 257.78;   28.980;   23.989;    0.000; 4.99081
 258.38;  -45.019;  -46.010;    0.000; 0.99101
 258.99;   24.987;  -29.007;    0.000;53.99391
 259.59;  -69.018;  -44.009;    0.000;-25.00818
 260.19;   42.976;  -56.013;    0.000;98.98901
 260.79;  -41.023;   27.988;    0.000;-69.01069
 261.39;   33.974;  189.986;    0.000;-156.01199
 261.99;  -69.027;  -52.014;    0.000;-17.01258
 262.60;  -16.025;    2.986;    0.000;-19.01188
 263.20;  -54.012;   -0.006;    0.000;-54.00563
 263.80;  -22.035;  -75.019;    0.000;52.98377
 264.40;  -13.022;  -33.012;    0.000;19.98966
 265.00;   41.981;   36.990;    0.000; 4.99098
 265.60;  -16.017;  -50.009;    0.000;33.99189
 266.20;    9.985;  -13.008;    0.000;22.99314
 266.81;  -23.018; -101.010;    0.000;77.99164
 267.41;   19.975;  -40.013;    0.000;59.98852
 268.01;   32.986;   42.993;    0.000;-10.00655
 268.61;   16.975;  -32.014;    0.000;48.98813
 269.21;  -75.026;  -22.014;    0.000;-53.01234
 269.81;   18.988;  -56.006;    0.000;74.99453
 270.41;   11.981;   75.990;    0.000;-64.00886
 271.01;  -21.023;   25.988;    0.000;-47.01084
 271.62;  -73.013;    3.993;    0.000;-77.00611
 272.22;   42.985;  -44.008;    0.000;86.99296
 272.82;  -26.022;   37.988;    0.000;-64.01027
 273.42;   26.979;   58.989;    0.000;-32.00996
 274.02;  -70.018;    2.991;    0.000;-73.00825
 274.62;   33.971;   -5.016;    0.000;38.98639
 275.22;   -4.015;  -86.008;    0.000;81.99321
 275.82;   19.975;  -14.013;    0.000;33.98832
 276.42;   -6.024;  -52.013;    0.000;45.98859
 277.02;   -6.014;  -32.008;    0.000;25.99334
 277.63;  -11.023;  -20.012;    0.000; 8.98920
 278.23;   48.977;  -24.012;    0.000;72.98927
 278.83;  -36.026;   -5.014;    0.000;-31.01203
 279.43;   37.975;   70.987;    0.000;-33.01163
 280.03;   -3.008;  -34.004;    0.000;30.99642
 280.63;   36.979;  -29.011;    0.000;65.99006
 281.23;    8.979;   55.989;    0.000;-47.00957
 281.83;   58.971;  -44.015;    0.000;102.98663
 282.43;  186.979;  307.989;    0.000;-121.01001
 283.03;   80.982;   67.990;    0.000;12.99143
 283.63;  -19.023;  -54.012;    0.000;34.98934
 284.23;   20.974;  -23.014;    0.000;43.98782
 284.83;  -64.027;  -30.014;    0.000;-34.01240
 285.43;   41.981;   16.990;    0.000;24.99132
 286.03;  -39.011;  -34.006;    0.000;-5.00514
 286.63;  -41.023;   25.988;    0.000;-67.01071
 287.23;  -19.019;  -31.010;    0.000;11.99118
 287.84;    4.985;  -28.008;    0.000;32.99277
 288.44;   -9.017;    8.991;    0.000;-18.00800
 289.04;   34.987;  -70.007;    0.000;104.99400
 289.64;   17.983;  -41.009;    0.000;58.99210
 290.24;   10.962;  -53.021;    0.000;63.98204
 290.84; -125.005;  -68.003;    0.000;-57.00229
 291.44;   13.988;  -35.006;    0.000;48.99437
 292.04;  -60.008;  -23.004;    0.000;-37.00370
 292.64;   19.984;    1.992;    0.000;17.99268
 293.24;  -60.012;  -28.006;    0.000;-32.00541
 293.84;   79.976;  -61.013;    0.000;140.98889
 294.44;  -51.023;   30.988;    0.000;-82.01062
 295.04;   16.984;  -69.008;    0.000;85.99263
 295.64;  -58.009;  -21.005;    0.000;-37.00435
 296.24;   30.990;  -43.005;    0.000;73.99547
 296.84;  -18.013;  -52.007;    0.000;33.99400
 297.44;   20.981;  -16.010;    0.000;36.99094
 298.04;   48.995;  -52.003;    0.000;100.99780
 298.64;   -4.010;  -82.006;    0.000;77.99516
 299.24;  -24.022;  -81.012;    0.000;56.98975
 299.84;    9.990;   72.994;    0.000;-63.00488
 300.44;    4.983;  -44.009;    0.000;48.99228
 301.04;   -5.006;    2.997;    0.000;-8.00301
 301.64;  -96.023;  -51.012;    0.000;-45.01088
 302.24;   16.980;  -12.011;    0.000;28.99076
 302.83;  -53.005;  -27.003;    0.000;-26.00253
 303.43;   14.978;  -75.012;    0.000;89.98967
 304.03;  -24.028;  -32.015;    0.000; 7.98711
 304.63;  -55.014;  -47.008;    0.000;-8.00668
 305.23;  -77.016;  -94.009;    0.000;16.99233
 305.83;  -32.018;  -85.010;    0.000;52.99149
 306.43;  -32.019;  -43.010;    0.000;10.99132
 307.03;   60.977;   80.988;    0.000;-20.01053
 307.63;  -45.018;    2.990;    0.000;-48.00842
 308.23;   15.978;   13.988;    0.000; 1.98993
 308.83;   -4.023;  -32.012;    0.000;27.98907
 309.43;   52.971;  -87.016;    0.000;139.98628
 310.03;  -73.031;  -17.016;    0.000;-56.01434
 310.63;    5.974;    7.986;    0.000;-2.01220
 311.23;  -38.031;  -95.017;    0.000;56.98533
 311.83;   -9.019;   -5.010;    0.000;-4.00882
 312.43;   -3.013;  -51.007;    0.000;47.99395
 313.02;   11.976;   51.987;    0.000;-40.01141
 313.62;  -85.017; -116.009;    0.000;30.99215
 314.22;  -14.020;  -45.011;    0.000;30.99074
 314.82;   11.975;   55.987;    0.000;-44.01170
 315.42;   30.970;   28.984;    0.000; 1.98586
 316.02;  -92.026;    5.986;    0.000;-98.01205
 316.62;  -10.035;  -45.018;    0.000;34.98386
 317.22;   20.969;  -62.017;    0.000;82.98540
 317.82;   40.972;  -57.015;    0.000;97.98679
 318.42;    3.983;  290.991;    0.000;-287.00792
 319.01;   20.971;   33.984;    0.000;-13.01359
 319.61;    4.969;   -4.017;    0.000; 8.98533
 320.21;  -55.029;  -22.015;    0.000;-33.01335
 320.81;  -27.040;   11.978;    0.000;-39.01882
 321.41;   40.982;   67.990;    0.000;-27.00851
 322.01;  -31.025;  -67.014;    0.000;35.98813
 322.61;   20.963;   20.980;    0.000;-0.01708
 323.21;  -67.030;   -1.016;    0.000;-66.01423
 323.80;  -29.029; -111.016;    0.000;81.98637
 324.40;  -37.045;  -12.024;    0.000;-25.02082
 325.00;   22.962;  -57.020;    0.000;79.98230
 325.60;   12.963;   18.980;    0.000;-6.01731
 326.20;    6.966;  -50.018;    0.000;56.98434
 326.80;  -52.039;   18.979;    0.000;-71.01797
 327.40;   23.953;    8.975;    0.000;14.97827
 327.99;  -30.057;    1.969;    0.000;-32.02672
 328.59;  -17.060;  -40.032;    0.000;22.97210
 329.19;  -28.066;  476.965;    0.000;-505.03079
 329.79;    2.935;  -30.035;    0.000;32.96974
 330.39;  -26.069;   78.963;    0.000;-105.03202
 330.99;  -16.065;  -52.035;    0.000;35.96965
 331.58;  -16.074;  -68.040;    0.000;51.96524
 332.18;   26.917;  -67.044;    0.000;93.96117
 332.78;  -28.086;   78.954;    0.000;-107.03996
 333.38;   55.905;   57.949;    0.000;-2.04453
 333.98;   -0.089;  -76.048;    0.000;75.95826
 334.57;   34.906;    0.950;    0.000;33.95617
 335.17;  -60.089;  -59.047;    0.000;-1.04138
 335.77;    6.916;  -28.045;    0.000;34.96062
 336.37;  -24.093;  100.950;    0.000;-125.04356
 336.97;  -11.077;  -13.041;    0.000; 1.96409
 337.56;   -6.081;  -19.043;    0.000;12.96202
 338.16;   24.922;   -1.041;    0.000;25.96374
 338.76;  -50.062;   45.967;    0.000;-96.02894
 339.36;   -5.070;  -45.037;    0.000;39.96752
 339.96;  -77.066;  -64.035;    0.000;-13.03085
 340.55;   25.935;   40.965;    0.000;-15.03043
 341.15;  -55.066;  -42.035;    0.000;-13.03096
 341.75;  -10.076;   79.960;    0.000;-90.03534
 342.35;  -10.076;  -60.041;    0.000;49.96440
 342.94;   87.905;   20.949;    0.000;66.95545
 343.54;  -75.081;  -63.043;    0.000;-12.03789
 344.14;   -7.083;  -78.044;    0.000;70.96141
 344.74;    6.911;  -44.048;    0.000;50.95837
 345.33;   51.922;   68.958;    0.000;-17.03652
 345.93;   -6.078;  -31.042;    0.000;24.96363
 346.53;   12.931;  -25.037;    0.000;37.96759
 347.13;  -73.073;  -11.039;    0.000;-62.03411
 347.72;   21.916;  -39.045;    0.000;60.96077
 348.32;  -22.071;   12.962;    0.000;-35.03325
 348.92;   17.924;  -67.040;    0.000;84.96458
 349.52;   -9.078;  -16.042;    0.000; 6.96346
 350.11;   11.921;   48.958;    0.000;-37.03709
 350.71;   -7.072;  -17.039;    0.000; 9.96620
 351.31;  -20.069;   -7.037;    0.000;-13.03221
 351.91;  -53.070;  -27.037;    0.000;-26.03259
 352.50;   31.929;    4.962;    0.000;26.96691
 353.10;  -18.073;   14.961;    0.000;-33.03400
 353.70;   -3.062;   57.967;    0.000;-61.02889
 354.29;   21.926;  432.961;    0.000;-411.03444
 354.89;  -10.083;    0.956;    0.000;-11.03883
 355.49;  -66.064;  -27.034;    0.000;-39.02984
 356.09;    1.920;   13.957;    0.000;-12.03751
 356.68;  -23.070;  -57.038;    0.000;33.96713
 357.28;  -30.085;  -49.046;    0.000;18.96015
 357.88;  -19.083;   16.955;    0.000;-36.03896
 358.47;    5.925;  -93.040;    0.000;98.96502
 359.07;  -21.070;   52.962;    0.000;-74.03283
 359.67;   -3.072;  -62.038;    0.000;58.96645
 360.26;  -91.073;  -24.039;    0.000;-67.03404
 360.86;   12.921;  -61.042;    0.000;73.96317
 361.46;  -57.064;   17.966;    0.000;-75.02969
 362.05;   -2.079;   46.958;    0.000;-49.03666
 362.65;    2.935;  -39.034;    0.000;41.96985
 363.25;  -33.065; -113.035;    0.000;79.96979
 363.84;  -67.064;  -70.034;    0.000; 2.97020
 364.44;   -8.069;   -8.037;    0.000;-0.03217
 365.04;  -59.070;  -20.037;    0.000;-39.03261
 365.63;   33.932;  -71.036;    0.000;104.96833
 366.23;  -76.063;  -30.034;    0.000;-46.02962
 366.83;   40.932;  -20.036;    0.000;60.96838
 367.42;  -40.075;  -52.040;    0.000;11.96502
 368.02;  -27.068;  -71.036;    0.000;43.96818
 368.62;  -73.076;   16.959;    0.000;-90.03567
 369.21;  -19.075;   -8.040;    0.000;-11.03509
 369.81;    4.927;  261.961;    0.000;-257.03430
 370.41;  -11.055;  -75.029;    0.000;63.97421
 371.00;  -75.084;  -67.045;    0.000;-8.03918
 371.60;  -16.081;   -5.043;    0.000;-11.03769
 372.19;  -41.073;  -38.039;    0.000;-3.03408
 372.79;   66.938;  -72.033;    0.000;138.97089
 373.39;    4.933;    2.964;    0.000; 1.96871
 373.98;  -23.076;  -31.041;    0.000; 7.96435
 374.58;  -50.070;   -2.037;    0.000;-48.03274
 375.17;  -12.089;  -58.047;    0.000;45.95868
 375.77;   33.923;  157.959;    0.000;-124.03586
 376.37;   -5.078;  -40.042;    0.000;34.96357
 376.96;  -43.077;   40.959;    0.000;-84.03578
 377.56;  -12.069;   49.963;    0.000;-62.03210
 378.15;  -18.071;   18.962;    0.000;-37.03294
 378.75;  -36.077;   17.959;    0.000;-54.03602
 379.35;  -30.075;  -64.040;    0.000;33.96479
 379.94;   74.920;   36.958;    0.000;37.96284
 380.54;    3.917;  -71.044;    0.000;74.96143
 381.13;  -32.077;   17.959;    0.000;-50.03610
 381.73;  -22.064;  -29.034;    0.000; 6.97007
 382.32;   -8.059;  -23.031;    0.000;14.97253
 382.92;  -28.076;  -37.040;    0.000; 8.96464
 383.52;  -55.071;  -33.038;    0.000;-22.03296
 384.11;  -76.076;  -29.041;    0.000;-47.03551
 384.71;    5.917;  -88.044;    0.000;93.96125
 385.30;  -82.080;    2.957;    0.000;-85.03747
 385.90;    0.925;   57.960;    0.000;-57.03509
 386.49;  -21.082;  -88.044;    0.000;66.96189
 387.09;   -7.085;   21.955;    0.000;-29.03951
 387.68;  -51.072;  -44.039;    0.000;-7.03380
 388.28;  -26.073;  -38.039;    0.000;11.96587
 388.87;  -13.063;  286.966;    0.000;-300.02942
 389.47;  -48.082;  -33.044;    0.000;-15.03824
 390.07;  -17.076;    0.960;    0.000;-18.03534
 390.66;    6.930;  -55.037;    0.000;61.96744
 391.26;  -91.080; -127.042;    0.000;35.96286
 391.85;  -14.077;  -36.041;    0.000;21.96422
 392.45;  -52.078;  -80.042;    0.000;27.96341
 393.04;   39.933;  -55.036;    0.000;94.96882
 393.64;  -34.070;  -83.037;    0.000;48.96724
 394.23;   26.925;  -25.040;    0.000;51.96497
 394.83;  -47.070;  -82.037;    0.000;34.96726
 395.42;   -7.087;  -29.047;    0.000;21.95919
 396.02;  -18.068;   82.964;    0.000;-101.03178
 396.61;    1.916;  -37.045;    0.000;38.96084
 397.21;  -26.076;  -30.040;    0.000; 3.96473
 397.80; 1166.926;12139.961;    0.000;-10973.03435
 398.40;   10.925;  107.960;    0.000;-97.03516
 398.99;    3.925;  -34.040;    0.000;37.96502
 399.59;  -53.082;  -18.043;    0.000;-35.03804
 400.18;  -26.074;  -10.039;    0.000;-16.03450
 400.78;  -40.073;  -52.039;    0.000;11.96605
 401.37;    9.936;  -85.034;    0.000;94.97034
 401.96;  -10.078;  -81.042;    0.000;70.96359
 402.56;   21.927; -102.039;    0.000;123.96603
 403.15;  -53.074;  -31.039;    0.000;-22.03435
 403.75;  -29.067;  -19.036;    0.000;-10.03131
 404.34;  -53.077;   -2.041;    0.000;-51.03600
 404.94;  -34.075;  -82.040;    0.000;47.96479
 405.53;  -49.079; -111.042;    0.000;61.96312
 406.13;    9.919;   30.957;    0.000;-21.03762
 406.72;  -82.065;  -57.035;    0.000;-25.03048
 407.32;  -18.075;  -22.040;    0.000; 3.96495
 407.91;  -85.073;   38.961;    0.000;-124.03393
 408.50;   25.939;  -31.032;    0.000;56.97163
 409.10;    8.927;  -48.039;    0.000;56.96611
 409.69;   27.934;   47.965;    0.000;-20.03096
 410.29;  -37.068;  -35.036;    0.000;-2.03175
 410.88;  -24.072;  -48.038;    0.000;23.96636
 411.47;  -37.067;  -97.036;    0.000;59.96855
 412.07;   38.932;  -79.036;    0.000;117.96845
 412.66;  -28.068;  -32.036;    0.000; 3.96820
 413.26;   29.936;  -29.034;    0.000;58.96992
 413.85;  -54.063;  -52.034;    0.000;-2.02947
 414.45;    5.929;   99.962;    0.000;-94.03336
 415.04;  -50.064; -105.034;    0.000;54.97020
 415.63;   -5.072;  -21.038;    0.000;15.96660
 416.23;  -17.072;  -22.038;    0.000; 4.96653
 416.82;   19.926;   -3.040;    0.000;22.96537
 417.41;  -37.060;  -98.032;    0.000;60.97212
 418.01;    9.930;  -60.037;    0.000;69.96737
 418.60;  -72.075;  -20.040;    0.000;-52.03494
 419.20;   13.933;  -76.036;    0.000;89.96864
 419.79;    1.937;    6.966;    0.000;-5.02951
 420.38;  -46.066;  -44.035;    0.000;-2.03078
 420.98;  -65.063;  -92.034;    0.000;26.97058
 421.57;   48.931;  -91.037;    0.000;139.96800
 422.16;  -15.059;   -8.031;    0.000;-7.02755
 422.76;  -44.058;  -44.031;    0.000;-0.02722
 423.35;  -53.066;  -92.035;    0.000;38.96943
 423.94;   17.940;  148.968;    0.000;-131.02791
 424.54;  -11.057;  -39.030;    0.000;27.97352
 425.13;   66.929;   46.962;    0.000;19.96697
 425.73;  -98.062;   29.967;    0.000;-128.02896
 426.32;  -22.066;  -33.035;    0.000;10.96917
 426.91;  -51.056;    8.970;    0.000;-60.02615
 427.51;   -1.053;    8.972;    0.000;-10.02474
 428.10;  -54.059;   -0.031;    0.000;-54.02744
 428.69;  -12.059;  -42.032;    0.000;29.97231
 429.28;  -69.070; -104.038;    0.000;34.96715
 429.88;  -17.064;  -31.034;    0.000;13.96990
 430.47;  -48.053;  -27.029;    0.000;-21.02494
 431.06;  -38.059;   -1.031;    0.000;-37.02751
 431.66;  -38.056;  -35.030;    0.000;-3.02615
 432.25;  -34.059;  -61.031;    0.000;26.97253
 432.84;  -34.051; -103.027;    0.000;68.97607
 433.44;   34.934;  -51.035;    0.000;85.96943
 434.03;  -45.052;  -58.028;    0.000;12.97584
 434.62;   21.942;  -27.031;    0.000;48.97275
 435.22;  -35.043;  -18.023;    0.000;-17.01994
 435.81;   11.944;  -39.030;    0.000;50.97396
 436.40;  -50.049;  -79.026;    0.000;28.97713
 436.99;  -48.058;  -28.031;    0.000;-20.02718
 437.59;  -61.056; -101.030;    0.000;39.97401
 438.18;  -29.050;    1.973;    0.000;-31.02348
 438.77;  -66.049; -101.026;    0.000;34.97715
 439.36;    7.942;  -47.031;    0.000;54.97306
 439.96;   -2.044;   61.977;    0.000;-64.02036
 440.55;   23.946;  -66.029;    0.000;89.97502
 441.14;   21.951;    2.974;    0.000;18.97696
 441.73;    1.934;  -20.035;    0.000;21.96926
 442.33;  -48.061; -111.032;    0.000;62.97174
 442.92;   -8.046;   23.975;    0.000;-32.02148
 443.51;  -22.054;  -23.029;    0.000; 0.97493
 444.10;    5.943;  -42.030;    0.000;47.97335
 444.70;  -79.045;  -64.024;    0.000;-15.02120
 445.29;   -1.060;  -75.032;    0.000;73.97183
 445.88;  -22.055;  -94.030;    0.000;71.97410
 446.47;   11.955;   22.976;    0.000;-11.02115
 447.07;  -33.048;  -87.025;    0.000;53.97777
 447.66;   28.943;   -5.030;    0.000;33.97335
 448.25;  -86.050;    6.973;    0.000;-93.02349
 448.84;  -36.052;  -22.028;    0.000;-14.02419
 449.43;  -50.039;  -60.021;    0.000; 9.98192
 450.03;  -14.064;   58.966;    0.000;-73.02991
 450.62;    4.942; -126.031;    0.000;130.97275
 451.21;    7.939;  -56.033;    0.000;63.97141
 451.80;   -8.051;   56.973;    0.000;-65.02382
 452.39;  -16.047;  -91.025;    0.000;74.97784
 452.99;  -47.044;  -46.023;    0.000;-1.02030
 453.58;   -5.045;  -42.024;    0.000;36.97902
 454.17;  -44.035;  -50.019;    0.000; 5.98375
 454.76;  -15.040;   26.979;    0.000;-42.01849
 455.35;  -14.044;   32.976;    0.000;-47.02058
 455.95;   54.949;  -28.027;    0.000;82.97625
 456.54;  -22.039;  -33.021;    0.000;10.98166
 457.13;   30.950;  -52.026;    0.000;82.97685
 457.72;   14.964;  -46.019;    0.000;60.98320
 458.31;   27.962; -109.020;    0.000;136.98230
 458.90;  -22.048;   25.975;    0.000;-48.02223
 459.50;   41.950;   -2.027;    0.000;43.97676
 460.09;  -16.053;  -72.028;    0.000;55.97522
 460.68;    9.954;  -92.024;    0.000;101.97863
 461.27;  -36.048;  -24.025;    0.000;-12.02221
 461.86;   -8.043;  -20.023;    0.000;11.97992
 462.45;  -49.027;    2.986;    0.000;-52.01262
 463.04;  -15.049;  -57.026;    0.000;41.97726
 463.64;  -37.033;   69.983;    0.000;-107.01519
 464.23;  -25.047;   44.975;    0.000;-70.02188
 464.82;  -56.042;  -30.022;    0.000;-26.01961
 465.41;   57.973;  -50.014;    0.000;107.98756
 466.00;  -77.042;  -48.022;    0.000;-29.01950
 466.59;  -18.030;    7.984;    0.000;-26.01385
 467.18;  -34.034;  -41.018;    0.000; 6.98436
 467.77;   18.961;  -56.021;    0.000;74.98168
 468.37;  -43.047;  -63.025;    0.000;19.97786
 468.96;   21.952;  -33.025;    0.000;54.97779
 469.55;  -37.043;   35.977;    0.000;-73.01990
 470.14;   39.953;  -10.025;    0.000;49.97806
 470.73;  -36.052;   15.972;    0.000;-52.02410
 471.32;   14.961;  -45.021;    0.000;59.98157
 471.91;  -35.037;  -52.020;    0.000;16.98281
 472.50;   -2.053;  -75.028;    0.000;72.97518
 473.09;  -50.030; -113.016;    0.000;62.98623
 473.68;   -7.051;   42.973;    0.000;-50.02379
 474.27;  -52.032;  -68.017;    0.000;15.98513
 474.86;  -15.041;  -87.022;    0.000;71.98074
 475.46;  -45.036;  -19.019;    0.000;-26.01673
 476.05;   35.964;   77.981;    0.000;-42.01689
 476.64;  -31.034;  -48.018;    0.000;16.98393
 477.23;   30.961;  -91.021;    0.000;121.98168
 477.82;  -59.036; -115.019;    0.000;55.98320
 478.41;   37.964;  -83.019;    0.000;120.98335
 479.00;  -24.039;  -19.021;    0.000;-5.01825
 479.59;   -1.045;   22.976;    0.000;-24.02117
 480.18;  -38.032;   62.983;    0.000;-101.01497
 480.77;   78.967;  -51.017;    0.000;129.98481
 481.36;   28.968;  -89.017;    0.000;117.98494
 481.95;   80.960;   10.979;    0.000;69.98129
 482.54;   11.952; -106.026;    0.000;117.97742
 483.13;    9.959;  -40.022;    0.000;49.98087
 483.72;  -32.030;  -49.016;    0.000;16.98602
 484.31;   86.965; -102.019;    0.000;188.98353
 484.90;   30.966;  -20.018;    0.000;50.98412
 485.49;   34.975;  -60.013;    0.000;94.98839
 486.08;   -7.031;  -44.016;    0.000;36.98575
 486.67;   98.972;  -26.015;    0.000;124.98712
 487.26;   35.972;  -19.015;    0.000;54.98678
 487.85;   65.965;  -87.018;    0.000;152.98384
 488.44;   17.959;  -98.022;    0.000;115.98093
 489.03;   40.968;   46.983;    0.000;-6.01486
 489.62;   15.972;  -39.015;    0.000;54.98700
 490.21;   94.967; -101.018;    0.000;195.98469
 490.80;   30.971;  -51.015;    0.000;81.98661
 491.39;  131.967; -120.018;    0.000;251.98463
 491.98;   82.970;   -0.016;    0.000;82.98604
 492.57;   84.977;  -63.012;    0.000;147.98925
 493.16;   81.962;  -42.020;    0.000;123.98234
 493.75;  169.963;  -77.020;    0.000;246.98267
 494.34;  101.965;   -8.019;    0.000;109.98379
 494.93;   81.974;  -57.014;    0.000;138.98801
 495.52;  114.962;  -73.020;    0.000;187.98232
 496.11;  155.963;  -48.019;    0.000;203.98294
 496.70;  108.954;  -84.025;    0.000;192.97841
 497.29;  213.964;  -31.019;    0.000;244.98336
 497.88;  214.968;   13.983;    0.000;200.98485
 498.47;  177.968;   27.983;    0.000;149.98527
 499.06;  221.962;   27.980;    0.000;193.98239
 499.64;  258.970;  -57.016;    0.000;315.98595
 500.23;  262.965;  -57.019;    0.000;319.98366
 500.82;  311.966;  -52.018;    0.000;363.98426
 501.41;  276.959;   29.978;    0.000;246.98080
 502.00;  427.963;  -83.020;    0.000;510.98259
 502.59;  359.967;  -40.018;    0.000;399.98469
 503.18;  411.966;  -28.018;    0.000;439.98399
 503.77;  405.966; -122.018;    0.000;527.98406
 504.36;  508.968;   45.983;    0.000;462.98502
 504.95;  455.967; -141.018;    0.000;596.98443
 505.54;  556.965;  -93.019;    0.000;649.98349
 506.12;  563.966;   99.982;    0.000;463.98412
 506.71;  637.966;  -54.018;    0.000;691.98415
 507.30;  706.957;   -3.023;    0.000;709.97999
 507.89;  696.957;  -52.023;    0.000;748.98010
 508.48;  790.969;  -72.017;    0.000;862.98555
 509.07;  762.953;   -7.025;    0.000;769.97821
 509.66;  864.970;   10.984;    0.000;853.98599
 510.25;  965.958;  -83.022;    0.000;1048.98039
 510.84;  980.962;  -32.020;    0.000;1012.98248
 511.42; 1043.966;  -31.018;    0.000;1074.98393
 512.01; 1085.982;  108.990;    0.000;976.99167
 512.60; 1274.963;  -16.020;    0.000;1290.98283
 513.19; 1350.962;  -75.020;    0.000;1425.98234
 513.78; 1402.960;  -91.021;    0.000;1493.98155
 514.37; 1469.970;  -35.016;    0.000;1504.98606
 514.95; 1643.976;  -75.013;    0.000;1718.98867
 515.54; 1709.967;   13.983;    0.000;1695.98481
 516.13; 1989.963;  -89.020;    0.000;2078.98283
 516.72; 1803.969;  -33.016;    0.000;1836.98564
 517.31; 2131.970;  -29.016;    0.000;2160.98599
 517.90; 2265.972;  -19.015;    0.000;2284.98681
 518.48; 2469.969;  -68.017;    0.000;2537.98535
 519.07; 2528.961;  -16.021;    0.000;2544.98195
 519.66; 2798.974;  125.986;    0.000;2672.98769
 520.25; 2885.971;  -34.015;    0.000;2919.98661
 520.84; 3179.965;    0.981;    0.000;3178.98380
 521.43; 3382.973;  -56.015;    0.000;3438.98722
 522.01; 3686.972;   62.985;    0.000;3623.98696
 522.60; 3799.968;    8.983;    0.000;3790.98500
 523.19; 4221.970;   -4.016;    0.000;4225.98579
 523.78; 4377.965;  -31.019;    0.000;4408.98364
 524.37; 4685.961;   -7.021;    0.000;4692.98162
 524.95; 5017.974;  -52.014;    0.000;5069.98793
 525.54; 5428.965;    0.981;    0.000;5427.98351
 526.13; 5688.967;  -80.018;    0.000;5768.98448
 526.72; 6175.980;   10.989;    0.000;6164.99065
 527.30; 6408.973;  -53.015;    0.000;6461.98729
 527.89; 6691.964;  -69.019;    0.000;6760.98329
 528.48; 7176.974;    2.986;    0.000;7173.98784
 529.07; 7488.966;   -3.018;    0.000;7491.98401
 529.65; 7773.976;  113.987;    0.000;7659.98900
 530.24; 8222.965;   -0.018;    0.000;8222.98390
 530.83; 8805.975;  -70.013;    0.000;8875.98845
 531.42; 9122.972;   -4.015;    0.000;9126.98716
 532.00; 9418.969;  -25.017;    0.000;9443.98538
 532.59;10171.979;  -12.011;    0.000;10183.99035
 533.18;10293.979;   11.989;    0.000;10281.99013
 533.77;10705.967;   47.983;    0.000;10657.98483
 534.35;11027.972;   -8.015;    0.000;11035.98689
 534.94;11495.973;  -60.015;    0.000;11555.98725
 535.53;11773.980;   67.989;    0.000;11705.99076
 536.12;12009.964;  -19.019;    0.000;12028.98320
 536.70;12140.982;  -94.010;    0.000;12234.99145
 537.29;12314.976;  -25.013;    0.000;12339.98874
 537.88;12489.976;  -46.013;    0.000;12535.98885
 538.46;12933.970;  -77.016;    0.000;13010.98619
 539.05;12696.977;  -27.013;    0.000;12723.98905
 539.64;12718.981;   13.990;    0.000;12704.99112
 540.23;12871.973;   17.986;    0.000;12853.98762
 540.81;12977.979;  101.989;    0.000;12875.99008
 541.40;13054.966;  -76.018;    0.000;13130.98393
 541.99;12882.973;  -35.014;    0.000;12917.98762
 542.57;12631.976;  -71.013;    0.000;12702.98881
 543.16;12700.969;  -16.016;    0.000;12716.98564
 543.75;12530.984;   10.992;    0.000;12519.99265
 544.33;12499.976;   54.987;    0.000;12444.98863
 544.92;12247.984;    8.991;    0.000;12238.99237
 545.51;11910.974;   26.986;    0.000;11883.98808
 546.09;11948.970;    1.984;    0.000;11946.98593
 546.68;11893.971;   19.984;    0.000;11873.98643
 547.27;11421.981;  -14.010;    0.000;11435.99105
 547.85;11198.978;   -3.012;    0.000;11201.98989
 548.44;10929.982;  -54.010;    0.000;10983.99149
 549.03;10954.983;  -28.009;    0.000;10982.99195
 549.61;10726.970;  -64.016;    0.000;10790.98599
 550.20;10439.979;  -62.011;    0.000;10501.99024
 550.78;10161.974;   54.986;    0.000;10106.98791
 551.37; 9903.989;  -76.006;    0.000;9979.99496
 551.96; 9525.983;  -30.009;    0.000;9555.99230
 552.54; 9303.963;  -55.020;    0.000;9358.98276
 553.13; 8979.972;  -59.015;    0.000;9038.98670
 553.72; 8991.976;  -92.013;    0.000;9083.98874
 554.30; 8531.989;   47.994;    0.000;8483.99466
 554.89; 8357.988;  -54.006;    0.000;8411.99435
 555.47; 8259.979;  -11.011;    0.000;8270.99010
 556.06; 8036.973;  -39.014;    0.000;8075.98740
 556.65; 7587.978;   -6.012;    0.000;7593.98953
 557.23; 7452.976;  -27.013;    0.000;7479.98903
 557.82; 7220.983;  -93.009;    0.000;7313.99189
 558.40; 7178.979;  -89.011;    0.000;7267.99004
 558.99; 6750.964;  -39.019;    0.000;6789.98309
 559.58; 6494.971;  -62.015;    0.000;6556.98668
 560.16; 6364.965;  -99.019;    0.000;6463.98351
 560.75; 6156.969;  -70.016;    0.000;6226.98566
 561.33; 5861.978;   51.988;    0.000;5809.98993
 561.92; 5983.971;  -69.015;    0.000;6052.98652
 562.50; 5667.980;   12.990;    0.000;5654.99083
 563.09; 5450.976;  -39.013;    0.000;5489.98892
 563.68; 5168.978;  -31.012;    0.000;5199.98971
 564.26; 5371.974;  -95.014;    0.000;5466.98795
 564.85; 5075.977;  -18.012;    0.000;5093.98912
 565.43; 5046.973;  -27.014;    0.000;5073.98762
 566.02; 4673.975;  -49.013;    0.000;4722.98839
 566.60; 4622.981;   -5.010;    0.000;4627.99131
 567.19; 4389.973;  -91.014;    0.000;4480.98753
 567.77; 4326.987;  -96.007;    0.000;4422.99386
 568.36; 4153.985;   50.992;    0.000;4102.99279
 568.94; 3891.980;  -64.011;    0.000;3955.99054
 569.53; 3683.978;    1.988;    0.000;3681.98980
 570.11; 3707.988;  -45.006;    0.000;3752.99431
 570.70; 3439.980;  -62.011;    0.000;3501.99057
 571.28; 3421.967;   59.982;    0.000;3361.98445
 571.87; 3293.988;  -56.007;    0.000;3349.99430
 572.45; 3088.983;  -62.009;    0.000;3150.99186
 573.04; 2957.969;  -66.016;    0.000;3023.98557
 573.62; 2928.980; -112.011;    0.000;3040.99079
 574.21; 2868.978;   51.988;    0.000;2816.98969
 574.79; 2781.965;    8.981;    0.000;2772.98371
 575.38; 2540.980;    0.989;    0.000;2539.99063
 575.96; 2431.987;  -76.007;    0.000;2507.99408
 576.55; 2398.983;  -62.009;    0.000;2460.99217
 577.13; 2244.986;   14.993;    0.000;2229.99356
 577.72; 2178.982; -121.010;    0.000;2299.99142
 578.30; 2056.975;  -53.013;    0.000;2109.98826
 578.89; 2003.988;  -90.006;    0.000;2093.99459
 579.47; 1969.976;  -44.013;    0.000;2013.98865
 580.06; 1840.971;  -24.016;    0.000;1864.98624
 580.64; 1903.981;  -72.010;    0.000;1975.99090
 581.23; 1692.980;  -48.011;    0.000;1740.99079
 581.81; 1606.976;   69.987;    0.000;1536.98900
 582.39; 1606.981;  -32.010;    0.000;1638.99120
 582.98; 1582.970;  -45.016;    0.000;1627.98612
 583.56; 1565.968;  -24.017;    0.000;1589.98487
 584.15; 1370.975;   18.986;    0.000;1351.98812
 584.73; 1351.968;  -21.017;    0.000;1372.98525
 585.32; 1235.975;   32.987;    0.000;1202.98823
 585.90; 1309.969;  191.983;    0.000;1117.98544
 586.48; 1353.978;  -35.012;    0.000;1388.98964
 587.07; 1127.979;   15.989;    0.000;1111.99008
 587.65; 1144.979;   45.989;    0.000;1098.99000
 588.24;  995.981;    2.990;    0.000;992.99109
 588.82; 1057.979;  -59.011;    0.000;1116.99037
 589.41; 1102.982; 1498.991;    0.000;-396.00818
 589.99;  954.973;   -7.014;    0.000;961.98742
 590.57;  896.986; -131.007;    0.000;1027.99347
 591.16;  892.972;   51.985;    0.000;840.98692
 591.74;  792.980;  -35.011;    0.000;827.99063
 592.32;  837.983;   11.991;    0.000;825.99217
 592.91;  691.971;   62.985;    0.000;628.98659
 593.49;  756.984;  -53.009;    0.000;809.99239
 594.08;  684.974;  -62.014;    0.000;746.98778
 594.66;  748.983;   34.991;    0.000;713.99204
 595.24;  592.984;   -2.008;    0.000;594.99268
 595.83;  636.977;  -90.012;    0.000;726.98920
 596.41;  576.990;  -24.005;    0.000;600.99549
 596.99;  646.985;    9.992;    0.000;636.99285
 597.58;  486.982;  -36.010;    0.000;522.99167
 598.16;  598.968;  -28.017;    0.000;626.98524
 598.74;  484.981;   78.990;    0.000;405.99110
 599.33;  506.976;  -39.013;    0.000;545.98857
 599.91;  521.974;  -51.014;    0.000;572.98775
 600.49;  477.971;  -41.015;    0.000;518.98645
 601.08;  411.984;   25.991;    0.000;385.99241
 601.66;  398.983;  -92.009;    0.000;490.99204
 602.24;  373.986;  -81.008;    0.000;454.99332
 602.83;  401.985;  -43.008;    0.000;444.99303
 603.41;  304.983;   -8.009;    0.000;312.99222
 603.99;  388.959;  -24.022;    0.000;412.98091
 604.58;  285.981;   -0.010;    0.000;285.99098
 605.16;  323.976;  -42.013;    0.000;365.98894
 605.74;  292.980;  -63.011;    0.000;355.99063
 606.33;  234.982;  -19.010;    0.000;253.99160
 606.91;  228.973;  -20.014;    0.000;248.98756
 607.49;  299.976;  -57.013;    0.000;356.98887
 608.07;  223.984;    8.992;    0.000;214.99257
 608.66;  262.982;  -87.010;    0.000;349.99158
 609.24;  239.983;  -61.009;    0.000;300.99198
 609.82;  276.978;  -27.012;    0.000;303.98978
 610.41;  241.979;  -48.011;    0.000;289.99010
 610.99;  280.981; -103.010;    0.000;383.99125
 611.57;  201.988;  -25.006;    0.000;226.99450
 612.15;  186.979;  -40.011;    0.000;226.99011
 612.74;  208.988;   34.994;    0.000;173.99457
 613.32;  159.980;  -37.011;    0.000;196.99050
 613.90;  150.982;   22.990;    0.000;127.99167
 614.48;   67.977;  -46.012;    0.000;113.98918
 615.07;  133.969;  -24.017;    0.000;157.98547
 615.65;  226.991;  -18.005;    0.000;244.99585
 616.23;   97.980;  -70.011;    0.000;167.99055
 616.81;  145.965; -112.019;    0.000;257.98366
 617.40;   53.957;  -59.023;    0.000;112.97977
 617.98;  145.949;  -17.027;    0.000;162.97618
 618.56;  131.968; -157.017;    0.000;288.98498
 619.14;  179.963;  -48.020;    0.000;227.98258
 619.72;   62.963;  -76.020;    0.000;138.98280
 620.31;  137.971;   16.985;    0.000;120.98665
 620.89;   78.976;   27.987;    0.000;50.98889
 621.47;  184.975;  -84.014;    0.000;268.98817
 622.05;   69.976;  -88.013;    0.000;157.98901
 622.63;  107.970; -105.016;    0.000;212.98610
 623.22;  100.985;  -55.008;    0.000;155.99296
 623.80;   79.969;  -27.017;    0.000;106.98544
 624.38;   74.979;   93.989;    0.000;-19.00965
 624.96;  103.970;  -55.016;    0.000;158.98612
 625.54;   39.973;  -58.015;    0.000;97.98720
 626.13;   10.983;  -33.009;    0.000;43.99222
 626.71;   95.976;  396.987;    0.000;-301.01122
 627.29;  141.961;  -58.021;    0.000;199.98166
 627.87;    3.975;  -37.013;    0.000;40.98839
 628.45;   14.976;  -74.013;    0.000;88.98889
 629.03;    7.973;   33.985;    0.000;-26.01273
 629.62;   92.972;  -39.015;    0.000;131.98685
 630.20;   16.973; -111.014;    0.000;127.98742
 630.78;   96.978;   23.988;    0.000;72.98991
 631.36;   -8.033;  -47.017;    0.000;38.98480
 631.94;   82.979;    5.989;    0.000;76.99041
 632.52;   74.982;    6.991;    0.000;67.99178
 633.10;   78.968;  -19.017;    0.000;97.98487
 633.68;   -7.030;  -86.016;    0.000;78.98601
 634.27;   12.972;  -31.015;    0.000;43.98703
 634.85;   -2.031;  -75.017;    0.000;72.98547
 635.43;   63.960;  -78.022;    0.000;141.98111
 636.01;  -20.024;  -77.013;    0.000;56.98892
 636.59;   38.974;  -60.014;    0.000;98.98791
 637.17;   40.954;    8.975;    0.000;31.97838
 637.75;   57.966;  -61.018;    0.000;118.98432
 638.33;  -22.035;  -73.018;    0.000;50.98384
 638.91;   18.969;   19.983;    0.000;-1.01467
 639.50;  -18.042;  -84.022;    0.000;65.98052
 640.08;    2.971;  -99.016;    0.000;101.98640
 640.66;  -77.029; -116.015;    0.000;38.98644
 641.24;   37.971;   31.985;    0.000; 5.98647
 641.82;   67.971;  -34.015;    0.000;101.98650
 642.40;   -0.029;  -31.015;    0.000;30.98654
 642.98;  -42.029;  -39.015;    0.000;-3.01343
 643.56;   35.971;  -69.015;    0.000;104.98660
 644.14;  -19.029;  -16.015;    0.000;-3.01336
 644.72;   -3.029;  -36.015;    0.000;32.98667
 645.30;  -26.028;  -19.015;    0.000;-7.01330
 645.88;   53.972;  -93.015;    0.000;146.98674
 646.46;  -18.028;  -46.015;    0.000;27.98677
 647.04;  -27.028;  -31.015;    0.000; 3.98680
 647.62;  -51.028;   43.985;    0.000;-95.01316
 648.20;    5.972;  -27.015;    0.000;32.98687
 648.78;  -11.028;   13.985;    0.000;-25.01310
 649.36;   11.972;   -2.015;    0.000;13.98694
 649.94;  -29.028;  -51.015;    0.000;21.98697
 650.52;   -5.028; -105.015;    0.000;99.98700
 651.11;  -31.028;  -67.015;    0.000;35.98704
 651.69;   60.972;  -26.015;    0.000;86.98707
 652.27;  -46.028;  -61.015;    0.000;14.98710
 652.85;   51.972; -143.015;    0.000;194.98714
 653.43;  -36.027;  -46.015;    0.000; 9.98717
 654.01;  -11.027;  -71.015;    0.000;59.98720
 654.59;   18.973;  -81.015;    0.000;99.98724
 655.17;   -4.027; -112.015;    0.000;107.98727
 655.74;  -34.027;  -69.015;    0.000;34.98730
 656.32;   32.973;  -12.014;    0.000;44.98734
 656.90;  -41.027;  -51.014;    0.000; 9.98737
 657.48;   29.973;   77.986;    0.000;-48.01260
 658.06;  -24.027;  -74.014;    0.000;49.98744
 658.64;   11.973;  -34.014;    0.000;45.98747
 659.22;  -61.027; -116.014;    0.000;54.98750
 659.80;   17.973;  -73.014;    0.000;90.98754
 660.38;  -43.027;  -45.014;    0.000; 1.98757
 660.96;   16.973;  -94.014;    0.000;110.98760
 661.54;  -52.026;  -69.014;    0.000;16.98764
 662.12;    5.974;   -9.014;    0.000;14.98767
 662.70;  -41.026;  -52.014;    0.000;10.98770
 663.28;    4.974;   -4.014;    0.000; 8.98774
 663.86;  -41.026;   -7.014;    0.000;-34.01223
 664.44;    8.974;   -8.014;    0.000;16.98780
 665.02;  -63.026;   -0.014;    0.000;-63.01216
 665.60;   -6.026;  -41.014;    0.000;34.98787
 666.18;  -35.026;  -10.014;    0.000;-25.01210
 666.75;   57.974;   40.986;    0.000;16.98794
 667.33;  -99.026;  -70.014;    0.000;-29.01203
 667.91;   40.974;  130.986;    0.000;-90.01200
 668.49;  -13.026;    9.986;    0.000;-23.01196
 669.07;   16.974;  -12.014;    0.000;28.98807
 669.65;  -51.025;  -49.014;    0.000;-2.01190
 670.23;    0.975;  -74.014;    0.000;74.98814
 670.81;  -59.025;  -28.014;    0.000;-31.01183
 671.39;   43.975;  -84.013;    0.000;127.98820
 671.97;  -45.025;  -20.013;    0.000;-25.01176
 672.54;   10.975;  -32.013;    0.000;42.98827
 673.12;  -61.025;  -13.013;    0.000;-48.01170
 673.70;   64.975;  -25.013;    0.000;89.98834
 674.28;  -16.025;  -12.013;    0.000;-4.01163
 674.86;   15.975;  -77.013;    0.000;92.98840
 675.44;  -26.025;  -28.013;    0.000; 1.98844
 676.02;   -8.025;   23.987;    0.000;-32.01153
 676.59;  -25.025;  -26.013;    0.000; 0.98850
 677.17;   -3.025;  -27.013;    0.000;23.98854
 677.75;  -52.024;  -50.013;    0.000;-2.01143
 678.33;  -26.024; -119.013;    0.000;92.98860
 678.91;  -80.024;  -56.013;    0.000;-24.01136
 679.49;  -16.024;  -52.013;    0.000;35.98867
 680.06;  -95.024;  -79.013;    0.000;-16.01130
 680.64;  -25.024;  -84.013;    0.000;58.98874
 681.22;  -73.024;  -77.013;    0.000; 3.98877
 681.80;  -97.024; -101.013;    0.000; 3.98880
 682.38;  -36.024;   -0.013;    0.000;-36.01116
 682.96;  -15.024;    8.987;    0.000;-24.01113
 683.53;  -76.024;    1.987;    0.000;-78.01110
 684.11;   61.976;  -52.013;    0.000;113.98894
 684.69;  -86.024;  -68.013;    0.000;-18.01103
 685.27;  -39.024;   28.987;    0.000;-68.01100
 685.85;  -47.023;  -27.013;    0.000;-20.01096
 686.42;    8.977;  -34.012;    0.000;42.98907
 687.00;  -29.023;  -46.012;    0.000;16.98910
 687.58;  -16.023;  -49.012;    0.000;32.98914
 688.16;  -57.023;  -93.012;    0.000;35.98917
 688.73;  -43.023;  -67.012;    0.000;23.98920
 689.31;  -31.023;   48.988;    0.000;-80.01076
 689.89;  -38.023;  -28.012;    0.000;-10.01073
 690.47;  -78.023;   71.988;    0.000;-150.01070
 691.04;   -2.023;  -14.012;    0.000;11.98934
 691.62;  -59.023;   32.988;    0.000;-92.01063
 692.20;   -7.023;  -93.012;    0.000;85.98940
 692.78;  -71.023;   -4.012;    0.000;-67.01056
 693.35;   17.977;  -23.012;    0.000;40.98947
 693.93;  -87.022;  -83.012;    0.000;-4.01050
 694.51;  -35.022; -143.012;    0.000;107.98954
 695.09;  -61.022;  -98.012;    0.000;36.98957
 695.66;    4.978;  -71.012;    0.000;75.98960
 696.24;  -73.022; -143.012;    0.000;69.98964
 696.82;  -33.022;  -27.012;    0.000;-6.01033
 697.39;  -61.022;  -79.012;    0.000;17.98970
 697.97;  -12.022;  -82.012;    0.000;69.98974
 698.55;  -27.022; -149.012;    0.000;121.98977
 699.13;   21.978;  -73.012;    0.000;94.98980
 699.70;  -46.022; -105.012;    0.000;58.98984
 700.28;  -34.022;  -71.012;    0.000;36.98987
 700.86;  -46.022;  -37.012;    0.000;-9.01010
 701.43;   32.978;  -50.012;    0.000;82.98994
 702.01;  -13.021;  -86.011;    0.000;72.98997
 702.59;  -30.021;  -48.011;    0.000;17.99000
 703.16;  -25.021; -103.011;    0.000;77.99004
 703.74;    3.979;  -12.011;    0.000;15.99007
 704.32;  -59.021;   74.989;    0.000;-134.00990
 704.89;  -26.021;  -58.011;    0.000;31.99014
 705.47;  -23.021;  -52.011;    0.000;28.99017
 706.05;  -16.021;  -53.011;    0.000;36.99020
 706.62;  -76.021;  -22.011;    0.000;-54.00976
 707.20;   22.979;  -72.011;    0.000;94.99027
 707.78; -101.021;  -57.011;    0.000;-44.00970
 708.35;   -1.021; -105.011;    0.000;103.99034
 708.93;  -46.021;   23.989;    0.000;-70.00963
 709.51;  -17.021;  -78.011;    0.000;60.99040
 710.08;  -54.020; -112.011;    0.000;57.99044
 710.66;   31.980;   -0.011;    0.000;31.99047
 711.23;  -22.020;  -34.011;    0.000;11.99050
 711.81;    1.980; -127.011;    0.000;128.99054
 712.39;   15.980;   -9.011;    0.000;24.99057
 712.96;  -52.020;  -71.011;    0.000;18.99060
 713.54;  -62.020;  -88.011;    0.000;25.99064
 714.11;  -62.020;  -82.011;    0.000;19.99067
 714.69;  -37.020;  -57.011;    0.000;19.99070
 715.27;  -31.020;  -36.011;    0.000; 4.99074
 715.84;  -82.020;  -35.011;    0.000;-47.00923
 716.42;   -8.020;  -61.011;    0.000;52.99080
 716.99;  -31.020;  -47.010;    0.000;15.99084
 717.57;   13.980;  259.990;    0.000;-246.00913
 718.15;  -37.019;  -22.010;    0.000;-15.00910
 718.72;  -62.019;    2.990;    0.000;-65.00906
 719.30;  -32.019;  -90.010;    0.000;57.99097
 719.87;    8.981; -131.010;    0.000;139.99100
 720.45;  -51.019; -100.010;    0.000;48.99104
 721.02;  -14.019;  -64.010;    0.000;49.99107
 721.60;  -87.019; -114.010;    0.000;26.99110
 722.17;   18.981;  -62.010;    0.000;80.99114
 722.75;  -83.019;  -69.010;    0.000;-14.00883
 723.33;   -1.019;  -99.010;    0.000;97.99120
 723.90;   -7.019;  -10.010;    0.000; 2.99124
 724.48;  -19.019;  -40.010;    0.000;20.99127
 725.05;  -30.019;  -79.010;    0.000;48.99130
 725.63;  -17.019;   25.990;    0.000;-43.00866
 726.20;  -70.018;  -15.010;    0.000;-55.00863
 726.78;  -25.018;  -98.010;    0.000;72.99140
 727.35;  -35.018;   21.990;    0.000;-57.00856
 727.93;  -14.018;  -91.010;    0.000;76.99147
 728.50;    9.982;  112.990;    0.000;-103.00850
 729.08;  -12.018;  -13.010;    0.000; 0.99154
 729.65;  -12.018;   70.990;    0.000;-83.00843
 730.23;    4.982;  -74.010;    0.000;78.99160
 730.80;  -15.018;  -35.010;    0.000;19.99164
 731.38;   -8.018;  -87.010;    0.000;78.99167
 731.95;  -60.018;   47.991;    0.000;-108.00830
 732.53;  -83.018;  -34.009;    0.000;-49.00826
 733.10;  -75.018;  -37.009;    0.000;-38.00823
 733.68;   -1.018; -113.009;    0.000;111.99180
 734.25;  -64.017;  -81.009;    0.000;16.99184
 734.82;    8.983;  -25.009;    0.000;33.99187
 735.40;  -47.017;  -87.009;    0.000;39.99190
 735.97;   16.983;   -6.009;    0.000;22.99194
 736.55;  -50.017;  -22.009;    0.000;-28.00803
 737.12;  -13.017;  -32.009;    0.000;18.99200
 737.70; -115.017; -100.009;    0.000;-15.00796
 738.27;  -23.017;  -51.009;    0.000;27.99207
 738.85;  -61.017; -101.009;    0.000;39.99210
 739.42;  -20.017;  -92.009;    0.000;71.99214
 739.99;  -70.017;   17.991;    0.000;-88.00783
 740.57;  -39.017;  -21.009;    0.000;-18.00780
 741.14;  -43.017;   -7.009;    0.000;-36.00776
 741.72;  -42.017;  -60.009;    0.000;17.99227
 742.29;  -52.016;  -94.009;    0.000;41.99230
 742.87;  -18.016;  -80.009;    0.000;61.99234
 743.44;  -41.016;  -58.009;    0.000;16.99237
 744.01;   -7.016;  -75.009;    0.000;67.99240
 744.59;  -43.016;  -68.009;    0.000;24.99244
 745.16;  -17.016;  -40.009;    0.000;22.99247
 745.73;  -53.016; -106.009;    0.000;52.99250
 746.31;  -14.016;  -58.009;    0.000;43.99254
 746.88;  -59.016; -137.008;    0.000;77.99257
 747.46;   26.984;    2.992;    0.000;23.99260
 748.03;  -34.016;  -94.008;    0.000;59.99264
 748.60;    3.984;  -38.008;    0.000;41.99267
 749.18;  -97.016;  -71.008;    0.000;-26.00730
 749.75;   32.984;   25.992;    0.000; 6.99274
 750.32;  -56.015; -104.008;    0.000;47.99277
 750.90;  -46.015;  -62.008;    0.000;15.99280
 751.47;  -48.015;   28.992;    0.000;-77.00716
 752.04;  -10.015;  -71.008;    0.000;60.99287
 752.62;  -65.015;  -81.008;    0.000;15.99290
 753.19;  -15.015;  -13.008;    0.000;-2.00706
 753.76;  -53.015;  -97.008;    0.000;43.99297
 754.34;  -27.015;   -1.008;    0.000;-26.00700
 754.91;  -55.015;  -67.008;    0.000;11.99304
 755.48;  -16.015;  -26.008;    0.000; 9.99307
 756.06;  -45.015;   35.992;    0.000;-81.00690
 756.63;   -0.015;    9.992;    0.000;-10.00686
 757.20;   12.985; -110.008;    0.000;122.99317
 757.78;  -41.015; -109.008;    0.000;67.99320
 758.35;  -30.014;  -21.008;    0.000;-9.00676
 758.92;  -12.014;  -49.008;    0.000;36.99327
 759.50;  -94.014; -123.008;    0.000;28.99330
 760.07;   -5.014;  -28.008;    0.000;22.99334
 760.64;  -82.014; -114.008;    0.000;31.99337
 761.21;  -38.014;  -26.008;    0.000;-12.00660
 761.79;  -84.014; -150.008;    0.000;65.99344
 762.36;    1.986;    4.993;    0.000;-3.00653
 762.93;  -26.014;  -64.007;    0.000;37.99350
 763.50;   -2.014;  -56.007;    0.000;53.99354
 764.08;   20.986;  -75.007;    0.000;95.99357
 764.65;  -29.014;  -52.007;    0.000;22.99360
 765.22;  -45.014;  -49.007;    0.000; 3.99364
 765.79;  -28.014;  -47.007;    0.000;18.99367
 766.37;  -45.013;  -10.007;    0.000;-35.00630
 766.94;   12.987;  -49.007;    0.000;61.99374
 767.51;  -72.013;  -86.007;    0.000;13.99377
 768.08;   15.987;  -18.007;    0.000;33.99380
 768.66;  -38.013;   -5.007;    0.000;-33.00616
 769.23;  -42.013;  -48.007;    0.000; 5.99387
 769.80;  -13.013;  -98.007;    0.000;84.99390
 770.37;    6.987;  -98.007;    0.000;104.99394
 770.94;  -76.013;  -57.007;    0.000;-19.00603
 771.52;  -38.013;  -80.007;    0.000;41.99400
 772.09;  -39.013;  -34.007;    0.000;-5.00596
 772.66;  -60.013;   -4.007;    0.000;-56.00593
 773.23;  -36.013;   20.993;    0.000;-57.00590
 773.80;  -19.013;  -48.007;    0.000;28.99414
 774.38;  -61.012;  -92.007;    0.000;30.99417
 774.95;   12.988;    1.993;    0.000;10.99420
 775.52;  -10.012;    7.993;    0.000;-18.00576
 776.09;   22.988;  -93.007;    0.000;115.99427
 776.66;  -31.012;  -88.007;    0.000;56.99430
 777.24;   -4.012;  -43.006;    0.000;38.99434
 777.81;  -25.012;   36.994;    0.000;-62.00563
 778.38;    1.988;  -57.006;    0.000;58.99440
 778.95;  -56.012;  -60.006;    0.000; 3.99444
 779.52;  -11.012;  -45.006;    0.000;33.99447
 780.09;  -26.012;  102.994;    0.000;-129.00550
 780.66;   39.988;  -35.006;    0.000;74.99454
 781.24;   -9.012;   15.994;    0.000;-25.00543
 781.81;  -45.012;  -81.006;    0.000;35.99460
 782.38;  -27.011;  -82.006;    0.000;54.99464
 782.95;   19.989; -106.006;    0.000;125.99467
 783.52;  -44.011;  -51.006;    0.000; 6.99470
 784.09;   -6.011;  -73.006;    0.000;66.99474
 784.66;  -86.011;  -42.006;    0.000;-44.00523
 785.23;   -3.011; -108.006;    0.000;104.99480
 785.80;  -52.011;  -93.006;    0.000;40.99484
 786.38;   14.989;   10.994;    0.000; 3.99487
 786.95;  -67.011;  -46.006;    0.000;-21.00510
 787.52;   11.989;  -24.006;    0.000;35.99494
 788.09;  -17.011;  -78.006;    0.000;60.99497
 788.66;  -49.011; -134.006;    0.000;84.99500
 789.23;  -68.011;   47.994;    0.000;-116.00497
 789.80;  -21.011;  -64.006;    0.000;42.99507
 790.37;  -20.010;  -54.006;    0.000;33.99510
 790.94;   51.990;   45.994;    0.000; 5.99513
 791.51;  -62.010; -123.006;    0.000;60.99517
 792.08;   12.990; -103.005;    0.000;115.99520
 792.65;  -42.010;  -40.005;    0.000;-2.00477
 793.22;    0.990;   31.995;    0.000;-31.00473
 793.80;  -38.010;  -37.005;    0.000;-1.00470
 794.37;  -24.010;  -41.005;    0.000;16.99533
 794.94;  -49.010;   42.995;    0.000;-92.00463
 795.51;    7.990;  -49.005;    0.000;56.99540
 796.08;  -53.010;  -38.005;    0.000;-15.00457
 796.65;  -44.010;  -72.005;    0.000;27.99547
 797.22;  -44.010;  -86.005;    0.000;41.99550
 797.79;  -68.010;   73.995;    0.000;-142.00447
 798.36; -116.009;  -76.005;    0.000;-40.00443
 798.93;  -76.009;  -92.005;    0.000;15.99560
 799.50;  -60.009;  -48.005;    0.000;-12.00437
 800.07;  -27.009;  -76.005;    0.000;48.99567
 800.64;  -48.009;  -91.005;    0.000;42.99570
 801.21;   20.991;  -67.005;    0.000;87.99573
 801.78;  -42.009;  -58.005;    0.000;15.99577
 802.35;  -53.009;  -61.005;    0.000; 7.99580
 802.92;  -57.009;  -74.005;    0.000;16.99583
 803.49;  -55.009;  -41.005;    0.000;-14.00413
 804.06;  -19.009;  -93.005;    0.000;73.99590
 804.63;   -0.009; -110.005;    0.000;109.99593
 805.20;  -52.009;  -20.005;    0.000;-32.00403
 805.77;  -18.009;  -74.005;    0.000;55.99600
 806.34;  -97.008;  -54.005;    0.000;-43.00397
 806.91;  -13.008;  -34.004;    0.000;20.99607
 807.47;  -74.008; -119.004;    0.000;44.99610
 808.04;   18.992;  -73.004;    0.000;91.99613
 808.61;  -43.008;  -39.004;    0.000;-4.00383
 809.18;  -48.008;    7.996;    0.000;-56.00380
 809.75;  -98.008;  -67.004;    0.000;-31.00377
 810.32;  -12.008;  -87.004;    0.000;74.99627
 810.89;  -50.008;  -66.004;    0.000;15.99630
 811.46;  -27.008;  -37.004;    0.000; 9.99633
 812.03;  -34.008; -132.004;    0.000;97.99637
 812.60;  -12.008; -119.004;    0.000;106.99640
 813.17;  -78.008;  -13.004;    0.000;-65.00357
 813.74;    7.992;   43.996;    0.000;-36.00353
 814.31;  -41.007;  -32.004;    0.000;-9.00350
 814.87;   37.993;    0.996;    0.000;36.99653
 815.44; -110.007;  -65.004;    0.000;-45.00343
 816.01;  -46.007;   43.996;    0.000;-90.00340
 816.58;  -70.007;  -88.004;    0.000;17.99663
 817.15;  -36.007;   52.996;    0.000;-89.00333
 817.72;  -75.007;  -61.004;    0.000;-14.00330
 818.29;  -40.007;  -34.004;    0.000;-6.00327
 818.86;  -79.007;   25.996;    0.000;-105.00323
 819.42;  -18.007;  -45.004;    0.000;26.99680
 819.99;  -98.007;  -39.004;    0.000;-59.00317
 820.56;   22.993;  -80.004;    0.000;102.99687
 821.13;  -50.007;  -31.004;    0.000;-19.00310
 821.70;  -17.007; -110.004;    0.000;92.99693
 822.27;  -51.006;  -10.003;    0.000;-41.00303
 822.84;    1.994;  -45.003;    0.000;46.99700
 823.40;  -36.006;  -96.003;    0.000;59.99703
 823.97;  -58.006;    4.997;    0.000;-63.00293
 824.54;  -40.006;  -95.003;    0.000;54.99710
 825.11;  -37.006;  -94.003;    0.000;56.99713
 825.68; -109.006;   91.997;    0.000;-201.00283
 826.24;   14.994;  -83.003;    0.000;97.99720
 826.81;  -47.006;  -71.003;    0.000;23.99723
 827.38;  -11.006;  -87.003;    0.000;75.99727
 827.95;  -28.006;  -75.003;    0.000;46.99730
 828.52;   25.994;  -79.003;    0.000;104.99733
 829.08;  -58.006;  -31.003;    0.000;-27.00263
 829.65;   10.994;  -51.003;    0.000;61.99740
 830.22;  -67.005;  -55.003;    0.000;-12.00257
 830.79;   22.995;  -57.003;    0.000;79.99747
 831.36;  -37.005;  -25.003;    0.000;-12.00250
 831.92;   -0.005;   34.997;    0.000;-35.00247
 832.49;  -16.005; -131.003;    0.000;114.99757
 833.06;  -43.005;  -33.003;    0.000;-10.00240
 833.63;  -38.005;  -54.003;    0.000;15.99763
 834.19;  -24.005;  -60.003;    0.000;35.99767
 834.76;  -10.005;  -32.003;    0.000;21.99770
 835.33;  -35.005;  -71.003;    0.000;35.99773
 835.90;  -93.005; -124.003;    0.000;30.99777
 836.46;  -20.005;  -58.003;    0.000;37.99780
 837.03;  -60.005;  -54.002;    0.000;-6.00217
 837.60;   29.995;  -21.002;    0.000;50.99787
 838.17;   -5.004;   32.998;    0.000;-38.00210
 838.73;    1.996;  -33.002;    0.000;34.99793
 839.30;  -38.004;   12.998;    0.000;-51.00203
 839.87;    0.996;   -0.002;    0.000; 0.99800
 840.43;    6.996;  -16.002;    0.000;22.99803
 841.00;  -16.004;    2.998;    0.000;-19.00193
 841.57;  -69.004;  -32.002;    0.000;-37.00190
 842.14;   33.996;  -81.002;    0.000;114.99813
 842.70;  -39.004;   11.998;    0.000;-51.00183
 843.27;   -8.004;    8.998;    0.000;-17.00180
 843.84;  -72.004; -102.002;    0.000;29.99823
 844.40;  -58.004;  -75.002;    0.000;16.99827
 844.97;  -21.004;  -46.002;    0.000;24.99830
 845.54;  -43.004;  -85.002;    0.000;41.99833
 846.10; -128.003;  -35.002;    0.000;-93.00163
 846.67;  -35.003;  -94.002;    0.000;58.99840
 847.24;  -53.003; -113.002;    0.000;59.99843
 847.80;  -70.003;  -66.002;    0.000;-4.00153
 848.37;  -27.003;   -2.002;    0.000;-25.00150
 848.94;  -13.003;   38.998;    0.000;-52.00147
 849.50;  -27.003;   46.998;    0.000;-74.00143
 850.07;   -6.003; -122.002;    0.000;115.99860
 850.63;  -63.003;   -7.002;    0.000;-56.00137
 851.20;  -13.003; -184.002;    0.000;170.99867
 851.77;  -70.003; -114.001;    0.000;43.99870
 852.33;    0.997;   17.999;    0.000;-17.00127
 852.90;  -57.003;  -65.001;    0.000; 7.99877
 853.47;  -37.003;  -23.001;    0.000;-14.00120
 854.03;  -58.002;  -70.001;    0.000;11.99883
 854.60;  -34.002;    5.999;    0.000;-40.00113
 855.16;  -53.002;   34.999;    0.000;-88.00110
 855.73;  -28.002;   23.999;    0.000;-52.00107
 856.30;  -48.002;   12.999;    0.000;-61.00103
 856.86;  -24.002;  -52.001;    0.000;27.99900
 857.43;  -95.002;   38.999;    0.000;-134.00097
 857.99;   -0.002;  -68.001;    0.000;67.99907
 858.56;  -24.002; -104.001;    0.000;79.99910
 859.12;  -35.002;  -87.001;    0.000;51.99913
 859.69;  -46.002;  -60.001;    0.000;13.99917
 860.26;  -29.002; -104.001;    0.000;74.99920
 860.82;  -88.002;  -54.001;    0.000;-34.00077
 861.39;   18.998;   18.999;    0.000;-0.00073
 861.95;    0.999;  -37.001;    0.000;37.99930
 862.52;   19.999;    4.999;    0.000;14.99933
 863.08;  -50.001;  -78.001;    0.000;27.99937
 863.65;  -11.001;  -32.001;    0.000;20.99940
 864.21;  -34.001;  -78.001;    0.000;43.99943
 864.78;  -41.001;    7.999;    0.000;-49.00053
 865.34;  -40.001;  176.999;    0.000;-217.00050
 865.91;   27.999;  -26.001;    0.000;53.99953
 866.47;  -45.001; -106.000;    0.000;60.99957
 867.04;   13.999;  -30.000;    0.000;43.99960
 867.61;  -76.001;  -90.000;    0.000;13.99963
 868.17;   54.999;  -33.000;    0.000;87.99967
 868.74;  -20.001;  -71.000;    0.000;50.99970
 869.30;   23.999;  -84.000;    0.000;107.99973
 869.86;  -89.000;  -31.000;    0.000;-58.00023
 870.43;  -63.000; -162.000;    0.000;98.99980
 870.99;  -70.000; -146.000;    0.000;75.99983
 871.56;    7.000;   -7.000;    0.000;13.99987
 872.12;  -28.000; -126.000;    0.000;97.99990
 872.69;  -30.000;  -87.000;    0.000;56.99993
 873.25;  -27.000;  -61.000;    0.000;33.99997
 873.82;    8.000;  -70.000;    0.000;78.00000
 874.38;  -26.000;    5.000;    0.000;-31.00000
 874.95;   25.000;  -30.000;    0.000;55.00000
 875.51; -127.000;  -47.000;    0.000;-80.00000
 876.08;  -41.000; -104.000;    0.000;63.00000
 876.64;  -84.000;  -93.000;    0.000; 9.00000
 877.20;    0.000;  -73.000;    0.000;73.00000
 877.77;  -43.000;  -61.000;    0.000;18.00000
 878.33;   -1.000; -115.000;    0.000;114.00000
 878.90;  -80.000;    0.000;    0.000;-80.00000
 879.46;   -1.000;  -96.000;    0.000;95.00000
 880.03;  -62.000;   -6.000;    0.000;-56.00000
 880.59;  -29.000;  -52.000;    0.000;23.00000
 881.15;  -32.000;   -3.000;    0.000;-29.00000
 881.72;   -3.000;  -85.000;    0.000;82.00000
 882.28;  -20.000;  -38.000;    0.000;18.00000
 882.85;  -40.000;  -80.000;    0.000;40.00000
 883.41;  -76.000;   -8.000;    0.000;-68.00000
 883.97;  -29.000;  259.000;    0.000;-288.00000
 884.54;  -71.000;  -62.000;    0.000;-9.00000
 885.10;  -11.000;  -98.000;    0.000;87.00000
 885.66;  -62.000;   30.000;    0.000;-92.00000
 886.23;   25.000;  -75.000;    0.000;100.00000
 886.79;  -42.000;  -44.000;    0.000; 2.00000
 887.36;  -41.000;  -62.000;    0.000;21.00000
 887.92;  -65.000; -115.000;    0.000;50.00000
 888.48;    8.000; -126.000;    0.000;134.00000
 889.05;  -83.000; -109.000;    0.000;26.00000
 889.61;  -74.000;  -71.000;    0.000;-3.00000
 890.17;  -62.000; -119.000;    0.000;57.00000
 890.74;  -34.000;  -51.000;    0.000;17.00000
 891.30;    2.000;  -49.000;    0.000;51.00000
 891.86;  -31.000; -100.000;    0.000;69.00000
 892.43;  -79.000; -113.000;    0.000;34.00000
 892.99;   22.000;  -47.000;    0.000;69.00000
 893.55; -101.000; -133.000;    0.000;32.00000
 894.11;  -34.000;  -44.000;    0.000;10.00000
 894.68;  -25.000;    8.000;    0.000;-33.00000
 895.24;  -27.000;   90.000;    0.000;-117.00000
 895.80;  -79.000;  -69.000;    0.000;-10.00000
 896.37;  -22.000;  -60.000;    0.000;38.00000
 896.93;  -33.000;   24.000;    0.000;-57.00000
 897.49;  -72.000;  -65.000;    0.000;-7.00000
 898.05;  -27.000;  -15.000;    0.000;-12.00000
 898.62;   19.000;   34.000;    0.000;-15.00000
 899.18; -105.000;  -72.000;    0.000;-33.00000
 899.74;    0.000;  105.000;    0.000;-105.00000
 900.31;  -90.000;  -72.000;    0.000;-18.00000
 900.87;  -41.000; -117.000;    0.000;76.00000
 901.43;  -74.000; -125.000;    0.000;51.00000
 901.99;  -30.000;  -29.000;    0.000;-1.00000
 902.56;  -32.000;   -7.000;    0.000;-25.00000
 903.12;    4.000;  173.000;    0.000;-169.00000
 903.68;  -22.000;  -10.000;    0.000;-12.00000
 904.24;  -10.000;  -54.000;    0.000;44.00000
 904.80;  -59.000;  -42.000;    0.000;-17.00000
 905.37;  -23.000; -103.000;    0.000;80.00000
 905.93;  -94.000;  -27.000;    0.000;-67.00000
 906.49;  -16.000;    0.000;    0.000;-16.00000
 907.05;  -93.000;  -71.000;    0.000;-22.00000
 907.61;  -11.000;  -66.000;    0.000;55.00000
 908.18;  -35.000;   49.000;    0.000;-84.00000
 908.74;   10.000;  -79.000;    0.000;89.00000
 909.30;  -62.000;  -76.000;    0.000;14.00000
 909.86;  -14.000;  -29.000;    0.000;15.00000
 910.42;  -43.000;  -41.000;    0.000;-2.00000
 910.99;  -41.000;  -25.000;    0.000;-16.00000
 911.55;  -47.000;  -97.000;    0.000;50.00000
 912.11;  -30.000;  -37.000;    0.000; 7.00000
 912.67;  -63.000;  -20.000;    0.000;-43.00000
 913.23;  -25.000;  -78.000;    0.000;53.00000
 913.79;  -64.000;  -26.000;    0.000;-38.00000
 914.36;    9.000;  -94.000;    0.000;103.00000
 914.92;  -57.000;   10.000;    0.000;-67.00000
 915.48;  -29.000;  -55.000;    0.000;26.00000
 916.04;  -70.000;   85.000;    0.000;-155.00000
 916.60;  -25.000;  -64.000;    0.000;39.00000
 917.16;  -93.000; -173.000;    0.000;80.00000
 917.72;    2.000;  -66.000;    0.000;68.00000
 918.28;  -42.000;  -99.000;    0.000;57.00000
 918.85;    2.000;  -41.000;    0.000;43.00000
 919.41;  -34.000;  -44.000;    0.000;10.00000
 919.97;  -46.000; -160.000;    0.000;114.00000
 920.53; -125.000;  -17.000;    0.000;-108.00000
 921.09;    6.000;   -1.000;    0.000; 7.00000
 921.65;  -33.000;  -52.000;    0.000;19.00000
 922.21;  -20.000; -103.000;    0.000;83.00000
 922.77;  -95.000;  -82.000;    0.000;-13.00000
 923.33;  -32.000;  -38.000;    0.000; 6.00000
 923.89;  -99.000;  -72.000;    0.000;-27.00000
 924.45;  -32.000;  -65.000;    0.000;33.00000
 925.01;  -46.000;  -45.000;    0.000;-1.00000
 925.58;    5.000;  -94.000;    0.000;99.00000
 926.14;  -40.000;  -79.000;    0.000;39.00000
 926.70;  -33.000;  -93.000;    0.000;60.00000
 927.26;  -60.000;   18.000;    0.000;-78.00000
 927.82;   -6.000;  -50.000;    0.000;44.00000
 928.38; -113.000;  -83.000;    0.000;-30.00000
 928.94;  -29.000;  -89.000;    0.000;60.00000
 929.50;  -32.000;  -18.000;    0.000;-14.00000
 930.06;  -31.000; -128.000;    0.000;97.00000
 930.62;  -83.000; -109.000;    0.000;26.00000
 931.18;  -50.000;  -17.000;    0.000;-33.00000
 931.74;  -78.000;  -92.000;    0.000;14.00000
 932.30;  -11.000;  -18.000;    0.000; 7.00000
 932.86;  -81.000;  -88.000;    0.000; 7.00000
 933.42;  -23.000;    2.000;    0.000;-25.00000
 933.98;  -13.000;    6.000;    0.000;-19.00000
 934.54;  -28.000;  -35.000;    0.000; 7.00000
 935.10;  -55.000;  -75.000;    0.000;20.00000
 935.66;    4.000;  -85.000;    0.000;89.00000
 936.22;  -77.000;  -47.000;    0.000;-30.00000
 936.78;  -26.000; -124.000;    0.000;98.00000
 937.34; -136.000;  -21.000;    0.000;-115.00000
 937.90;  -69.000;  -85.000;    0.000;16.00000
 938.46;  -38.000; -102.000;    0.000;64.00000
 939.02;   -4.000;  -93.000;    0.000;89.00000
 939.58;  -47.000; -134.000;    0.000;87.00000
 940.14;  -33.000;  -80.000;    0.000;47.00000
 940.70;  -44.000;   98.000;    0.000;-142.00000
 941.25;  -26.000;  -36.000;    0.000;10.00000
 941.81;  -84.000; -118.000;    0.000;34.00000
 942.37;    9.000;   18.000;    0.000;-9.00000
 942.93; -110.000; -100.000;    0.000;-10.00000
 943.49;  -21.000;  -44.000;    0.000;23.00000
 944.05;  -57.000;  -50.000;    0.000;-7.00000
 944.61;   -5.000;  -26.000;    0.000;21.00000
 945.17;  -61.000;  -33.000;    0.000;-28.00000
 945.73;  -26.000;  -81.000;    0.000;55.00000
 946.29;  -54.000;  -34.000;    0.000;-20.00000
 946.85;   -4.000; -100.000;    0.000;96.00000
 947.40;  -76.000; -119.000;    0.000;43.00000
 947.96;   48.000;  -64.000;    0.000;112.00000
 948.52;  -31.000;  -72.000;    0.000;41.00000
 949.08;  -12.000;  -38.000;    0.000;26.00000
 949.64;  -82.000;   24.000;    0.000;-106.00000
 950.20;   23.000;  -83.000;    0.000;106.00000
 950.76;  -62.000;  -72.000;    0.000;10.00000
 951.32;    5.000;  -53.000;    0.000;58.00000
 951.87;  -26.000;  -19.000;    0.000;-7.00000
 952.43;  -32.000;   11.000;    0.000;-43.00000
 952.99;   -6.000;   -7.000;    0.000; 1.00000
 953.55;  -16.000;  -85.000;    0.000;69.00000
 954.11; -109.000; -112.000;    0.000; 3.00000
 954.67;  -24.000;  -63.000;    0.000;39.00000
 955.22;  -82.000;  -70.000;    0.000;-12.00000
 955.78;  -14.000;   79.000;    0.000;-93.00000
 956.34; -126.000;  -22.000;    0.000;-104.00000
 956.90;  -64.000;  -85.000;    0.000;21.00000
 957.46;  -60.000;  -55.000;    0.000;-5.00000
 958.01;    6.000;    4.000;    0.000; 2.00000
 958.57;  -75.000;  -10.000;    0.000;-65.00000
 959.13;  -36.000;  -48.000;    0.000;12.00000
 959.69;  -72.000;  -86.000;    0.000;14.00000
 960.25;    3.000;  -41.000;    0.000;44.00000
 960.80;  -41.000;  -22.000;    0.000;-19.00000
 961.36;   -3.000;  -36.000;    0.000;33.00000
 961.92;  -44.000; -138.000;    0.000;94.00000
 962.48;  -31.000;  -84.000;    0.000;53.00000
 963.03;  -12.000;  -48.000;    0.000;36.00000
 963.59;   70.000;    6.000;    0.000;64.00000
 964.15;  -51.000;  -28.000;    0.000;-23.00000
 964.71;  -57.000;  -42.000;    0.000;-15.00000
 965.26;  -65.000;  -54.000;    0.000;-11.00000
 965.82;  -65.000;  -19.000;    0.000;-46.00000
 966.38;  -91.000;  -65.000;    0.000;-26.00000
 966.94;   23.000; -117.000;    0.000;140.00000
 967.49;  -68.000; -107.000;    0.000;39.00000
 968.05;  -10.000;  -94.000;    0.000;84.00000
 968.61;  -72.000;   43.000;    0.000;-115.00000
 969.17;   -5.000;  -84.000;    0.000;79.00000
 969.72; -116.000; -122.000;    0.000; 6.00000
 970.28;  -11.000;   11.000;    0.000;-22.00000
 970.84;  -49.000;  -71.000;    0.000;22.00000
 971.39;  -19.000;   14.000;    0.000;-33.00000
 971.95;  -72.000; -104.000;    0.000;32.00000
 972.51;   21.000; -112.000;    0.000;133.00000
 973.06;  -71.000;  -20.000;    0.000;-51.00000
 973.62;   -4.000;  -33.000;    0.000;29.00000
 974.18;  -61.000;  -51.000;    0.000;-10.00000
 974.73;  -11.000; -117.000;    0.000;106.00000
 975.29;  -75.000;   46.000;    0.000;-121.00000
 975.85;   71.000;   33.000;    0.000;38.00000
 976.40;  -60.000;   26.000;    0.000;-86.00000
 976.96;  -66.000;  -93.000;    0.000;27.00000
 977.52;  -89.000;   22.000;    0.000;-111.00000
 978.07;  -19.000;  -92.000;    0.000;73.00000
 978.63;  -82.000;  -61.000;    0.000;-21.00000
 979.19;   35.000;  -96.000;    0.000;131.00000
 979.74;  -65.000;   16.000;    0.000;-81.00000
 980.30;   16.000; -142.000;    0.000;158.00000
 980.85;  -69.000;    0.000;    0.000;-69.00000
 981.41;  -22.000;  -86.000;    0.000;64.00000
 981.97;  -76.000; -102.000;    0.000;26.00000
 982.52;  -16.000; -113.000;    0.000;97.00000
 983.08;  -64.000; -109.000;    0.000;45.00000
 983.63;  -40.000;  -71.000;    0.000;31.00000
 984.19;  -87.000;  -33.000;    0.000;-54.00000
 984.75;  -31.000; -102.000;    0.000;71.00000
 985.30;  -68.000; -108.000;    0.000;40.00000
 985.86;   13.000;  -66.000;    0.000;79.00000
 986.41;  -50.000;  -77.000;    0.000;27.00000
 986.97;  -37.000;  -90.000;    0.000;53.00000
 987.52;  -81.000; -103.000;    0.000;22.00000
 988.08; -113.000; -121.000;    0.000; 8.00000
 988.64;  -59.000;  -87.000;    0.000;28.00000
 989.19;  -84.000; -112.000;    0.000;28.00000
 989.75;  -72.000;    7.000;    0.000;-79.00000
 990.30;   -8.000; -125.000;    0.000;117.00000
 990.86;  -66.000;  -60.000;    0.000;-6.00000
 991.41;  -17.000;  -89.000;    0.000;72.00000
 991.97;  -62.000;  -22.000;    0.000;-40.00000
 992.52;  -25.000; -114.000;    0.000;89.00000
 993.08;  -64.000; -114.000;    0.000;50.00000
 993.63;   38.000;  -53.000;    0.000;91.00000
 994.19;  -34.000;  -18.000;    0.000;-16.00000
 994.74;  -20.000; -126.000;    0.000;106.00000
 995.30;  -44.000; -125.000;    0.000;81.00000
 995.85;   -7.000;  -86.000;    0.000;79.00000
 996.41;  -85.000;  -72.000;    0.000;-13.00000
 996.96;    0.000;   -2.000;    0.000; 2.00000
 997.52;  -82.000;   45.000;    0.000;-127.00000
 998.07;  -57.000;   -6.000;    0.000;-51.00000
 998.63;  -65.000;  -97.000;    0.000;32.00000
 999.18;  -18.000;  103.000;    0.000;-121.00000
 999.74;  -54.000;  -43.000;    0.000;-11.00000
1000.29;   16.000;  -49.000;    0.000;65.00000
1000.85;  -86.000;  -39.000;    0.000;-47.00000
1001.40;  -40.000;  -30.000;    0.000;-10.00000
1001.96;  -65.000;  -96.000;    0.000;31.00000
1002.51;  -38.000; -103.000;    0.000;65.00000
1003.06;  -52.000;  -94.000;    0.000;42.00000
1003.62;   14.000;   -1.000;    0.000;15.00000
1004.17;  -80.000; -111.000;    0.000;31.00000
1004.73;  -12.000;  -93.000;    0.000;81.00000
1005.28;  -77.000;   77.000;    0.000;-154.00000
1005.83;  -63.000;  -80.000;    0.000;17.00000
1006.39;  -63.000; -146.000;    0.000;83.00000
1006.94;  -27.000; -103.000;    0.000;76.00000
1007.50;  -52.000;   28.000;    0.000;-80.00000
1008.05;  -34.000;  -47.000;    0.000;13.00000
1008.60;  -23.000;  -88.000;    0.000;65.00000
1009.16;   37.000;  -50.000;    0.000;87.00000
1009.71;  -89.000;   21.000;    0.000;-110.00000
1010.27;  -69.000;  -89.000;    0.000;20.00000
1010.82;  -63.000;  -97.000;    0.000;34.00000
1011.37;  -55.000;  -11.000;    0.000;-44.00000
1011.93;  -75.000;   13.000;    0.000;-88.00000
1012.48;  -16.000;  -61.000;    0.000;45.00000
1013.03;  -50.000;  -74.000;    0.000;24.00000
1013.59;    7.000;  -16.000;    0.000;23.00000
1014.14; -103.000;  -69.000;    0.000;-34.00000
1014.69;   21.000; -129.000;    0.000;150.00000
1015.25;  -54.000;   66.000;    0.000;-120.00000
1015.80;  -10.000;  -14.000;    0.000; 4.00000
1016.35;  -24.000; -124.000;    0.000;100.00000
1016.91;   25.000; -140.000;    0.000;165.00000
1017.46;  -57.000; -122.000;    0.000;65.00000
1018.01;  -24.000;  -42.000;    0.000;18.00000
1018.57;  -77.000; -115.000;    0.000;38.00000
1019.12;   25.000; -101.000;    0.000;126.00000
1019.67; -103.000;   10.000;    0.000;-113.00000
1020.23;  -20.000;  -22.000;    0.000; 2.00000
1020.78;  -72.000; -187.000;    0.000;115.00000
1021.33;    0.000;  -89.000;    0.000;89.00000
1021.88;  -29.000;    4.000;    0.000;-33.00000
1022.44;  -27.000;   10.000;    0.000;-37.00000
1022.99;  -84.000;   -5.000;    0.000;-79.00000
1023.54;   17.000;  -85.000;    0.000;102.00000
1024.09;  -78.000;   38.000;    0.000;-116.00000
1024.65;   -2.000;  -53.000;    0.000;51.00000
1025.20; -121.000; -105.000;    0.000;-16.00000
1025.75;   -7.000;  -42.000;    0.000;35.00000
1026.30;  -81.000;  -44.000;    0.000;-37.00000
1026.86;  -26.000; -104.000;    0.000;78.00000
1027.41;  -83.000;  -48.000;    0.000;-35.00000
1027.96;  -12.000;  -34.000;    0.000;22.00000
1028.51;  -79.000;   87.000;    0.000;-166.00000
1029.07;   -6.000;  -93.000;    0.000;87.00000
1029.62; -105.000;  -70.000;    0.000;-35.00000
1030.17;  -43.000;  -53.000;    0.000;10.00000
1030.72;  -62.000;  -29.000;    0.000;-33.00000
1031.27;  -19.000;  -72.000;    0.000;53.00000
1031.83;  -61.000;  -58.000;    0.000;-3.00000
1032.38;  -48.000;   24.000;    0.000;-72.00000
1032.93;  -71.000;  -82.000;    0.000;11.00000
1033.48;  -10.000;  -48.000;    0.000;38.00000
1034.03;  -55.000; -100.000;    0.000;45.00000
1034.58;   20.000;  -24.000;    0.000;44.00000
1035.14;  -78.000; -128.000;    0.000;50.00000
1035.69;   37.000; -126.000;    0.000;163.00000
1036.24;  -13.000;  -66.000;    0.000;53.00000
1036.79;   -9.000;  -77.000;    0.000;68.00000
1037.34;  -54.000; -100.000;    0.000;46.00000
1037.89;   18.000;  -99.000;    0.000;117.00000
1038.45;  -53.000; -113.000;    0.000;60.00000
1039.00;  -98.000; -132.000;    0.000;34.00000
1039.55;  -60.000; -104.000;    0.000;44.00000
1040.10;    4.000;  -57.000;    0.000;61.00000
1040.65;  -63.000;  -95.000;    0.000;32.00000
1041.20;  -36.000; -102.000;    0.000;66.00000
1041.75;  -51.000;  -74.000;    0.000;23.00000
1042.30;   11.000;  -93.000;    0.000;104.00000
1042.85;  -58.000;  -56.000;    0.000;-2.00000
1043.41;  -55.000;  -25.000;    0.000;-30.00000
1043.96;  -98.000; -123.000;    0.000;25.00000
1044.51;   23.000;  -64.000;    0.000;87.00000
1045.06;  -16.000;   16.000;    0.000;-32.00000
1045.61;   26.000; -109.000;    0.000;135.00000
1046.16;  -41.000;    6.000;    0.000;-47.00000
1046.71;  -18.000;  -61.000;    0.000;43.00000
1047.26;  -46.000;  -70.000;    0.000;24.00000
1047.81;  -45.000; -145.000;    0.000;100.00000
1048.36;  -59.000; -112.000;    0.000;53.00000
1048.91;   88.000;  834.000;    0.000;-746.00000
1049.46;  -49.000;   60.000;    0.000;-109.00000
1050.01;  -42.000;  -50.000;    0.000; 8.00000
1050.56; -104.000;  -80.000;    0.000;-24.00000
1051.11;  -31.000;    5.000;    0.000;-36.00000
1051.66;  -64.000;  -71.000;    0.000; 7.00000
1052.21;  -48.000;  -57.000;    0.000; 9.00000
1052.76;  -75.000;  -13.000;    0.000;-62.00000
1053.31;   25.000;  -89.000;    0.000;114.00000
1053.86;  -49.000;  -51.000;    0.000; 2.00000
1054.41;  -23.000;  -71.000;    0.000;48.00000
1054.96;  -68.000;  -52.000;    0.000;-16.00000
1055.51;    7.000;  156.000;    0.000;-149.00000
1056.06; -123.000; -122.000;    0.000;-1.00000
1056.61;    0.000;   17.000;    0.000;-17.00000
1057.16;  -87.000; -101.000;    0.000;14.00000
1057.71;   45.000;  -79.000;    0.000;124.00000
1058.26;  -60.000; -128.000;    0.000;68.00000
1058.81;   -1.000;  -50.000;    0.000;49.00000
1059.36; -102.000;  -99.000;    0.000;-3.00000
1059.91;  -13.000;  -12.000;    0.000;-1.00000
1060.46;  -51.000;   -9.000;    0.000;-42.00000
1061.01;   11.000;  -39.000;    0.000;50.00000
1061.56;  -80.000; -101.000;    0.000;21.00000
1062.11;  -20.000;  -77.000;    0.000;57.00000
1062.66; -114.000;  -80.000;    0.000;-34.00000
1063.21;    1.000; -132.000;    0.000;133.00000
1063.76;  -72.000;  -75.000;    0.000; 3.00000
1064.31;   -3.000;  -42.000;    0.000;39.00000
1064.86;  -60.000;  -86.000;    0.000;26.00000
1065.40;  -16.000;   29.000;    0.000;-45.00000
1065.95;  -39.000;  -38.000;    0.000;-1.00000
1066.50;  -13.000;  -91.000;    0.000;78.00000
1067.05;  -79.000;  -81.000;    0.000; 2.00000
1067.60;   -9.000;  -70.000;    0.000;61.00000
1068.15;  -72.000;  -69.000;    0.000;-3.00000
1068.70;   -3.000;  -92.000;    0.000;89.00000
1069.25;  -82.000;  -55.000;    0.000;-27.00000
1069.79;  -93.000;  -90.000;    0.000;-3.00000
1070.34;  -82.000; -115.000;    0.000;33.00000
1070.89;   -7.000; -102.000;    0.000;95.00000
1071.44;  -77.000;  -64.000;    0.000;-13.00000
1071.99;   34.000;  153.000;    0.000;-119.00000
1072.54;  -62.000; -101.000;    0.000;39.00000
1073.09;  -92.000;  -97.000;    0.000; 5.00000
1073.63;  -37.000;  -27.000;    0.000;-10.00000
1074.18;   10.000;  -73.000;    0.000;83.00000
1074.73;  -63.000;  -91.000;    0.000;28.00000
1075.28;   16.000;   20.000;    0.000;-4.00000
1075.83;  -46.000;  -34.000;    0.000;-12.00000
1076.38;  -42.000;  -93.000;    0.000;51.00000
1076.92;  -43.000;  -76.000;    0.000;33.00000
1077.47;   13.000;  -37.000;    0.000;50.00000
1078.02;  -64.000;   34.000;    0.000;-98.00000
1078.57;  -38.000; -126.000;    0.000;88.00000
1079.11;  -29.000; -118.000;    0.000;89.00000
1079.66;  -43.000; -151.000;    0.000;108.00000
1080.21; -137.000;  -38.000;    0.000;-99.00000
1080.76;  -45.000;  -56.000;    0.000;11.00000
1081.31; -147.000;  -95.000;    0.000;-52.00000
1081.85;   22.000;  -58.000;    0.000;80.00000
1082.40;  -49.000;  -25.000;    0.000;-24.00000
1082.95;  -62.000;  -56.000;    0.000;-6.00000
1083.50; -100.000;  -72.000;    0.000;-28.00000
1084.04;  -19.000;  -53.000;    0.000;34.00000
1084.59;  -97.000;  -57.000;    0.000;-40.00000
1085.14;   -8.000; -150.000;    0.000;142.00000
1085.69;  -69.000;  -64.000;    0.000;-5.00000
1086.23;  -91.000;  -29.000;    0.000;-62.00000
1086.78;  -81.000;    6.000;    0.000;-87.00000
1087.33;  -24.000;   -2.000;    0.000;-22.00000
1087.87;  -42.000;  -71.000;    0.000;29.00000
1088.42;  -40.000;   17.000;    0.000;-57.00000
1088.97;  -65.000; -110.000;    0.000;45.00000
1089.52;  -58.000;  -48.000;    0.000;-10.00000
1090.06;  -36.000;  -91.000;    0.000;55.00000
1090.61;  -80.000; -101.000;    0.000;21.00000
1091.16;  -30.000;  -51.000;    0.000;21.00000
1091.70;  -56.000;  -82.000;    0.000;26.00000
1092.25;  -53.000;  -46.000;    0.000;-7.00000
1092.80;   -5.000;  -45.000;    0.000;40.00000
1093.34;  -40.000;  -64.000;    0.000;24.00000
1093.89;  -26.000;  -67.000;    0.000;41.00000
1094.44;  -48.000;  -15.000;    0.000;-33.00000
1094.98;  -40.000;   58.000;    0.000;-98.00000
1095.53;  -56.000;  -80.000;    0.000;24.00000
1096.07;  -23.000;  -25.000;    0.000; 2.00000
1096.62; -113.000; -103.000;    0.000;-10.00000
1097.17;   -3.000;   -5.000;    0.000; 2.00000
1097.71;  -34.000;  -69.000;    0.000;35.00000
1098.26;  -19.000; -117.000;    0.000;98.00000
1098.81;  -95.000;  -42.000;    0.000;-53.00000
1099.35;    4.000; -117.000;    0.000;121.00000
1099.90;  -69.000;  -30.000;    0.000;-39.00000
1100.44; -100.000;  -82.000;    0.000;-18.00000

