560-570_27mA_3.49V_1701237U1
Integration time [ms]: 1000.000
Averaging Nr. [scans]: 1
Smoothing Nr. [pixels]: 0
Data measured with spectrometer [name]: 1701237U1
Wave   ;Sample   ;Dark     ;Reference;Scope Corrected for Dark
[nm]   ;[counts] ;[counts] ;[counts] ;[counts] 

 173.88;   22.983;  -45.991;    0.000;68.97427
 174.48;  -87.011;  -39.994;    0.000;-47.01675
 175.09;  -53.004;  -58.998;    0.000; 5.99379
 175.69;  -13.011;   53.006;    0.000;-66.01627
 176.30;  107.983;   34.009;    0.000;73.97330
 176.90;  -32.006;    2.003;    0.000;-34.00922
 177.51;   30.996;  -32.998;    0.000;63.99440
 178.11;   17.988;   61.007;    0.000;-43.01898
 178.72;  -18.007;  -79.996;    0.000;61.98945
 179.32;   -9.014;   -7.992;    0.000;-1.02200
 179.93;  -35.014;  -89.993;    0.000;54.97903
 180.54;  -58.004;  -57.998;    0.000;-0.00597
 181.14;  -12.017;  -43.991;    0.000;31.97391
 181.75;   53.995;   55.003;    0.000;-1.00747
 182.35;  -16.004;  -52.998;    0.000;36.99458
 182.96;    6.993;    6.004;    0.000; 0.98855
 183.56;  -56.018;  -69.990;    0.000;13.97210
 184.17;  166.990;  237.005;    0.000;-70.01531
 184.77;    1.996;  -66.998;    0.000;68.99427
 185.38;  -85.011;  -73.994;    0.000;-11.01711
 185.98;   51.988;   34.006;    0.000;17.98204
 186.59;  -53.007;  -29.996;    0.000;-23.01037
 187.19;   69.991;  -13.995;    0.000;83.98566
 187.80;    7.984;   45.008;    0.000;-37.02441
 188.40;   27.976;   -5.987;    0.000;33.96312
 189.01;   12.988;  -49.994;    0.000;62.98210
 189.61;  -52.008; -105.996;    0.000;53.98843
 190.21;  -42.016; -119.991;    0.000;77.97541
 190.82;  -27.014;  -47.992;    0.000;20.97818
 191.42;  -45.018;  -29.990;    0.000;-15.02784
 192.03;  -21.019;  -73.990;    0.000;52.97065
 192.63;  -71.022;  -35.989;    0.000;-35.03302
 193.24;  -22.005;   77.003;    0.000;-99.00820
 193.84;  -83.026;  -32.986;    0.000;-50.03965
 194.45;  -42.022; -107.988;    0.000;65.96655
 195.05;  -58.014;  -27.992;    0.000;-30.02194
 195.66;  -21.020;  -14.989;    0.000;-6.03085
 196.26;  -14.027;   11.014;    0.000;-25.04092
 196.87;  -21.024;  -28.987;    0.000; 7.96396
 197.47;  -26.019;   53.010;    0.000;-79.02929
 198.07;  -40.026;  -96.986;    0.000;56.96023
 198.68;  -46.027;  -42.985;    0.000;-3.04212
 199.28;   -6.016;  -30.991;    0.000;24.97535
 199.89;  -52.034;   12.018;    0.000;-64.05237
 200.49;   -8.026;  -11.986;    0.000; 3.95992
 201.10;   76.980;   54.011;    0.000;22.96872
 201.70;    1.972;  -67.985;    0.000;69.95691
 202.31;  -82.012;  -30.993;    0.000;-51.01886
 202.91;    8.987;  -26.993;    0.000;35.98072
 203.51;  -29.021;   19.011;    0.000;-48.03194
 204.12;  -31.003;  -49.998;    0.000;18.99554
 204.72;   45.993;   -2.996;    0.000;48.98855
 205.33;  -20.012;  -25.993;    0.000; 5.98108
 205.93;  -59.015;  -74.992;    0.000;15.97662
 206.53;  -12.017;  -40.991;    0.000;28.97391
 207.14;  -41.016;  -75.991;    0.000;34.97487
 207.74;   -6.016;    4.008;    0.000;-10.02386
 208.35;  -39.019;  -49.990;    0.000;10.97047
 208.95;  -85.016;  -23.991;    0.000;-61.02477
 209.55;  152.984;  222.009;    0.000;-69.02519
 210.16; -124.019; -100.990;    0.000;-23.02947
 210.76;  -40.018;  -28.990;    0.000;-11.02784
 211.37;  -49.017;  -33.991;    0.000;-15.02664
 211.97;  -68.011;  -26.994;    0.000;-41.01730
 212.57;  -11.025;    2.014;    0.000;-13.03893
 213.18;  -43.020;  -55.989;    0.000;12.96872
 213.78;  -33.023;  -92.988;    0.000;59.96487
 214.38;   37.984;   16.009;    0.000;21.97553
 214.99;   46.980;  -27.989;    0.000;74.96872
 215.59;  -53.024;  -23.987;    0.000;-29.03676
 216.20;  -59.026; -100.986;    0.000;41.95962
 216.80;  -44.025;  -21.987;    0.000;-22.03815
 217.40;   33.981;    1.010;    0.000;32.97047
 218.01;  -26.028;  -40.985;    0.000;14.95709
 218.61;  -82.023;  -72.988;    0.000;-9.03453
 219.21;  -55.016;  -33.991;    0.000;-21.02495
 219.82;  182.983;  152.009;    0.000;30.97373
 220.42;  -46.018;  -84.990;    0.000;38.97258
 221.02;   17.967;  -80.982;    0.000;98.94944
 221.63;  -96.036; -113.981;    0.000;17.94498
 222.23;  -31.024;  -95.987;    0.000;64.96318
 222.83;  -86.018;  -52.990;    0.000;-33.02760
 223.44;  -32.012;  -46.993;    0.000;14.98108
 224.04;  -46.036;   -5.981;    0.000;-40.05562
 224.64;    2.973;    4.014;    0.000;-1.04140
 225.25;  -59.018;  -38.991;    0.000;-20.02700
 225.85;  -40.014;  -64.993;    0.000;24.97861
 226.45;  -33.024;  -72.987;    0.000;39.96306
 227.06;  149.980;   76.011;    0.000;73.96908
 227.66;  157.983;  119.009;    0.000;38.97421
 228.26;   -5.022;   -7.988;    0.000; 2.96619
 228.87;  -27.022;  -47.988;    0.000;20.96559
 229.47;   49.981;   55.010;    0.000;-5.02923
 230.07;  -34.024;  -12.987;    0.000;-21.03640
 230.68;   15.989;   69.006;    0.000;-53.01669
 231.28;    1.975;   -4.986;    0.000; 6.96107
 231.88;  242.977;  233.012;    0.000; 9.96487
 232.48;  -50.013;   40.007;    0.000;-90.01953
 233.09;   15.985;  -66.992;    0.000;82.97752
 233.69;  -79.018;  -60.990;    0.000;-18.02832
 234.29;   73.982;   61.010;    0.000;12.97240
 234.90;  -30.025;  -12.987;    0.000;-17.03815
 235.50;   13.963;   29.020;    0.000;-15.05671
 236.10;  -43.017;  -24.991;    0.000;-18.02670
 236.70;   24.976;  -60.987;    0.000;85.96372
 237.31;  -46.026;  -24.986;    0.000;-21.03989
 237.91;  -24.025;  -46.987;    0.000;22.96155
 238.51;  -76.015;  -88.992;    0.000;12.97722
 239.11;  -29.001;  -42.999;    0.000;13.99789
 239.72;  -67.028; -109.985;    0.000;42.95649
 240.32;  -62.009;  -80.995;    0.000;18.98638
 240.92;   26.976;  -16.987;    0.000;43.96354
 241.53;   12.972;    1.015;    0.000;11.95667
 242.13;   13.979;   41.011;    0.000;-27.03218
 242.73;  -39.017;  -49.991;    0.000;10.97373
 243.33;   -0.006;  -17.997;    0.000;17.99126
 243.93;   27.975;   17.013;    0.000;10.96137
 244.54;   -7.019;  -68.990;    0.000;61.97077
 245.14;  -36.021; -123.989;    0.000;87.96806
 245.74;   34.976;   38.013;    0.000;-3.03730
 246.34;   -5.022;  -55.988;    0.000;50.96553
 246.95;  -89.026; -110.986;    0.000;21.95968
 247.55;  -99.023; -102.988;    0.000; 3.96523
 248.15;  -29.032;  -90.983;    0.000;61.95131
 248.75;   29.984;    4.009;    0.000;25.97505
 249.36;  -30.031;  -58.983;    0.000;28.95173
 249.96;  -34.014;  -97.992;    0.000;63.97782
 250.56;   20.977;    5.012;    0.000;15.96523
 251.16;  -52.017;  -11.991;    0.000;-40.02676
 251.76;   15.978;   83.012;    0.000;-67.03327
 252.37;   31.985;   -7.992;    0.000;39.97650
 252.97;   -0.021;    4.011;    0.000;-4.03194
 253.57;    2.981;  -29.990;    0.000;32.97077
 254.17;   44.974;   49.014;    0.000;-4.03929
 254.77;  -63.016;  -44.992;    0.000;-18.02411
 255.38;  -11.026;  -74.986;    0.000;63.96047
 255.98;   -5.007;  -36.996;    0.000;31.98939
 256.58;   -4.016;   52.008;    0.000;-56.02398
 257.18;  -61.021;  -41.989;    0.000;-19.03158
 257.78;  -27.020;  -51.989;    0.000;24.96981
 258.38;  -55.019;  -53.990;    0.000;-1.02953
 258.99;  -94.013;  -47.993;    0.000;-46.02001
 259.59;  -13.018;  -90.991;    0.000;77.97312
 260.19;  -98.024;  -35.987;    0.000;-62.03610
 260.79;  -37.023;   -0.988;    0.000;-36.03513
 261.39;  116.974;  196.014;    0.000;-79.03941
 261.99;  -68.027;  -60.986;    0.000;-7.04134
 262.60;  -58.025;  -24.986;    0.000;-33.03905
 263.20;    7.988;  -34.994;    0.000;42.98150
 263.80;  -62.035;  -51.981;    0.000;-10.05333
 264.40;  -85.022;  -28.988;    0.000;-56.03399
 265.00;   82.981;   -3.990;    0.000;86.97035
 265.60;  -32.017;  -60.991;    0.000;28.97336
 266.20;   12.985;    9.008;    0.000; 3.97746
 266.81;  -70.018;  -28.990;    0.000;-41.02748
 267.41;  -88.025;  -35.987;    0.000;-52.03772
 268.01;   99.986;  119.007;    0.000;-19.02151
 268.61;  -57.025;  -45.986;    0.000;-11.03899
 269.21; -125.026; -135.986;    0.000;10.95944
 269.81;  -60.012;  -23.994;    0.000;-36.01796
 270.41;  -13.019;  -30.990;    0.000;17.97089
 271.01;   -1.023;  -43.988;    0.000;42.96438
 271.62;  -12.013;  -21.993;    0.000; 9.97993
 272.22;  -60.015;  -52.992;    0.000;-7.02314
 272.82;    6.978;   21.012;    0.000;-14.03375
 273.42;   13.979;   19.011;    0.000;-5.03272
 274.02; -100.018;    3.009;    0.000;-103.02712
 274.62;   -5.029;  -45.984;    0.000;40.95528
 275.22;  -25.015; -104.992;    0.000;79.97770
 275.82;  -28.025;  -20.987;    0.000;-7.03839
 276.42;  -64.024;  -66.987;    0.000; 2.96252
 277.02;  -25.014;  -99.992;    0.000;74.97812
 277.63;   27.977;   18.012;    0.000; 9.96450
 278.23;  -14.023;  -89.988;    0.000;75.96475
 278.83;  -29.026;   51.014;    0.000;-80.03953
 279.43;   30.975;   69.013;    0.000;-38.03821
 280.03;  -16.008;  -40.996;    0.000;24.98825
 280.63;    8.979;   28.011;    0.000;-19.03266
 281.23;   91.979;   92.011;    0.000;-0.03146
 281.83;  -56.029;  -45.985;    0.000;-10.04393
 282.43; 2825.979; 2772.011;    0.000;53.96710
 283.03;   40.982;   60.010;    0.000;-19.02814
 283.63;  -83.023;  -36.988;    0.000;-46.03501
 284.23;  -31.026;  -30.986;    0.000;-0.04001
 284.83;   40.973;   42.014;    0.000;-1.04074
 285.43;  -26.019;   53.010;    0.000;-79.02850
 286.03;  -19.011;  -66.994;    0.000;47.98313
 286.63;  -29.023;  -35.988;    0.000; 6.96481
 287.23;  -91.019;  -49.990;    0.000;-41.02899
 287.84;  -87.015;  -67.992;    0.000;-19.02374
 288.44;  -32.017;  -37.991;    0.000; 5.97373
 289.04;  -71.013; -116.993;    0.000;45.98029
 289.64;  -22.017;   -4.991;    0.000;-17.02597
 290.24;  -39.038;   -3.979;    0.000;-35.05900
 290.84;  -91.005;  -44.997;    0.000;-46.00753
 291.44;  -45.012;   12.006;    0.000;-57.01850
 292.04;  -55.008;  -72.996;    0.000;17.98783
 292.64;   33.984;   26.008;    0.000; 7.97595
 293.24;  -29.012;  -18.994;    0.000;-10.01778
 293.84;  -13.024;   12.013;    0.000;-25.03652
 294.44;   21.977;   47.012;    0.000;-25.03489
 295.04;  -67.016;  -69.992;    0.000; 2.97577
 295.64;  -22.009;  -63.995;    0.000;41.98572
 296.24;  -40.010;  -58.995;    0.000;18.98511
 296.84;  -44.013;  -34.993;    0.000;-9.01971
 297.44;  -66.019;  -67.990;    0.000; 1.97023
 298.04;  -63.005;  -97.997;    0.000;34.99277
 298.64; -142.010;  -82.994;    0.000;-59.01591
 299.24;  -43.022;  -81.988;    0.000;38.96631
 299.84;  -29.010;   27.006;    0.000;-56.01603
 300.44;  -22.017;   29.009;    0.000;-51.02537
 301.04;  -35.006;  -41.997;    0.000; 6.99012
 301.64;  -58.023;  -37.988;    0.000;-20.03574
 302.24;  -31.020;  -27.989;    0.000;-3.03037
 302.83;  -82.005;  -24.997;    0.000;-57.00832
 303.43;  -24.022;  -60.988;    0.000;36.96607
 304.03;  -75.028;  -41.985;    0.000;-33.04237
 304.63;  -96.014;  -59.992;    0.000;-36.02194
 305.23;  -79.016;  -44.991;    0.000;-34.02519
 305.83; -106.018;  -61.990;    0.000;-44.02796
 306.43;  -39.019;  -14.990;    0.000;-24.02850
 307.03;   10.977;   44.012;    0.000;-33.03459
 307.63;   16.982;  -10.990;    0.000;27.97234
 308.23;   54.978;   28.012;    0.000;26.96692
 308.83;  -12.023;  -39.988;    0.000;27.96408
 309.43;  -49.029;  -66.984;    0.000;17.95492
 310.03;  -24.031;  -36.984;    0.000;12.95287
 310.63;   36.974;  -18.986;    0.000;55.95992
 311.23;    7.969; -110.983;    0.000;118.95179
 311.83;   22.981;   15.010;    0.000; 7.97101
 312.43;  -26.013;  -53.993;    0.000;27.98011
 313.02;   34.976;   68.013;    0.000;-33.03748
 313.62;  -75.017;  -73.991;    0.000;-1.02579
 314.22;    0.980;   29.011;    0.000;-28.03043
 314.82;   87.975;   47.013;    0.000;40.96155
 315.42;   25.970;   30.016;    0.000;-4.04646
 316.02;    1.974;  -62.986;    0.000;64.96041
 316.62;  -21.035;   32.018;    0.000;-53.05303
 317.22;   -3.031;   26.017;    0.000;-29.04797
 317.82;  -21.028;  -39.985;    0.000;18.95661
 318.42;  351.983;  306.009;    0.000;45.97397
 319.01;  -62.029;   29.016;    0.000;-91.04466
 319.61;   43.969;  -54.983;    0.000;98.95179
 320.21;   46.971;  -55.985;    0.000;102.95613
 320.81;  -30.040;  -52.978;    0.000;22.93817
 321.41;   50.982;   42.010;    0.000; 8.97204
 322.01;  -94.025;  -95.986;    0.000; 1.96101
 322.61;  -61.037;  -36.980;    0.000;-24.05611
 323.21;  -38.030;  -48.984;    0.000;10.95324
 323.80;  -64.029;  -55.984;    0.000;-8.04478
 324.40;  -50.045;  -41.976;    0.000;-8.06840
 325.00;  -26.038;  -72.980;    0.000;46.94185
 325.60;   41.963;    1.020;    0.000;40.94311
 326.20;   17.966;  -21.982;    0.000;39.94854
 326.80;  -73.039; -104.979;    0.000;31.94094
 327.40;   17.953;  -21.975;    0.000;39.92859
 327.99;   -2.057;   47.031;    0.000;-49.08780
 328.59;  -22.060;  -18.968;    0.000;-3.09166
 329.19;  569.934;  510.035;    0.000;59.89882
 329.79;    1.935;  -91.965;    0.000;93.90057
 330.39;  125.931;   84.037;    0.000;41.89478
 330.99;  -44.065;  -49.965;    0.000; 5.90026
 331.58;  -46.074; -101.960;    0.000;55.88580
 332.18;  -54.083;  -93.956;    0.000;39.87242
 332.78;  153.914;   77.046;    0.000;76.86869
 333.38;  101.905;   79.051;    0.000;22.85368
 333.98;  -83.089;  -95.952;    0.000;12.86284
 334.57;   13.906;  -11.950;    0.000;25.85597
 335.17;  -24.089;  -75.953;    0.000;51.86405
 335.77;  -16.084;   11.045;    0.000;-27.12939
 336.37;  183.907;  129.050;    0.000;54.85687
 336.97;  -57.077;    5.041;    0.000;-62.11800
 337.56;   -8.081;   -8.957;    0.000; 0.87519
 338.16;   20.922;   43.041;    0.000;-22.11914
 338.76;   38.938;   89.033;    0.000;-50.09510
 339.36;   48.930;   17.037;    0.000;31.89327
 339.96;   47.934;   30.035;    0.000;17.89864
 340.55;   20.935;   24.035;    0.000;-3.09998
 341.15;  -11.066;  -58.965;    0.000;47.89828
 341.75;  127.924;  145.040;    0.000;-17.11613
 342.35;   -7.076;  -11.959;    0.000; 4.88303
 342.94;   44.905;   32.051;    0.000;12.85362
 343.54;  -59.081;  -80.957;    0.000;21.87550
 344.14;  -89.083;  -46.956;    0.000;-42.12679
 344.74;   24.911;  -57.952;    0.000;82.86320
 345.33;   64.922;   79.042;    0.000;-14.11998
 345.93;  -17.078;    3.042;    0.000;-20.11950
 346.53; -111.069;   -7.963;    0.000;-103.10649
 347.13;  -18.073;  -21.961;    0.000; 3.88791
 347.72;  -55.084;  -13.955;    0.000;-41.12890
 348.32;   66.929;   -2.962;    0.000;69.89074
 348.92;    3.924;   30.040;    0.000;-26.11637
 349.52;  -57.078;   -6.958;    0.000;-50.12004
 350.11;   41.921;   60.042;    0.000;-18.12185
 350.71;   20.928;  -69.961;    0.000;90.88893
 351.31;   23.931;    5.037;    0.000;18.89418
 351.91;  -39.070; -105.963;    0.000;66.89291
 352.50;  -40.071;  -38.962;    0.000;-1.10871
 353.10;   23.927;    3.039;    0.000;20.88827
 353.70;  -33.062;   -5.967;    0.000;-27.09491
 354.29;  468.926;  466.039;    0.000; 2.88683
 354.89;  -31.083;  -33.956;    0.000; 2.87242
 355.49;   12.936;  -67.966;    0.000;80.90195
 356.09;   52.920;   38.043;    0.000;14.87676
 356.68;  -52.070;  -51.962;    0.000;-0.10799
 357.28;  -41.085;  -47.954;    0.000; 6.86905
 357.88;   64.917;   -1.955;    0.000;66.87200
 358.47;  -95.075; -140.960;    0.000;45.88508
 359.07;   28.930;   -7.962;    0.000;36.89213
 359.67;   24.928;  -68.962;    0.000;93.88978
 360.26;  -50.073;  -12.961;    0.000;-37.11185
 360.86;  -41.079;  -21.958;    0.000;-19.12101
 361.46;   26.936;    1.034;    0.000;25.90243
 362.05;  -13.079;   13.042;    0.000;-26.12047
 362.65;   22.935;  -68.966;    0.000;91.90093
 363.25;  -80.065;  -53.965;    0.000;-26.09925
 363.84;  -32.064;  -47.966;    0.000;15.90207
 364.44;   -2.069;  -56.963;    0.000;54.89430
 365.04;    9.930;  -89.963;    0.000;99.89285
 365.63;  -76.068;  -93.964;    0.000;17.89593
 366.23;    4.937;  -43.966;    0.000;48.90267
 366.83;  -13.068;  -26.964;    0.000;13.89611
 367.42;   19.925;  -54.960;    0.000;74.88508
 368.02;  -92.068;  -41.964;    0.000;-50.10456
 368.62;   50.924;  -49.959;    0.000;100.88279
 369.21;  -23.075;   49.040;    0.000;-72.11528
 369.81;  299.927;  242.039;    0.000;57.88731
 370.41;  -41.055;  -82.971;    0.000;41.91527
 371.00;  -43.084;  -63.955;    0.000;20.87128
 371.60;    3.919;  -37.957;    0.000;41.87616
 372.19;  -49.073;  -67.961;    0.000;18.88803
 372.79; -127.062;  -91.967;    0.000;-35.09564
 373.39;   41.933;    6.036;    0.000;35.89719
 373.98;  -17.076;  -56.959;    0.000;39.88285
 374.58;  -65.070;  -15.963;    0.000;-49.10757
 375.17;  -16.089;   41.047;    0.000;-57.13577
 375.77;   72.923;   77.041;    0.000;-4.11781
 376.37;  -58.078; -107.958;    0.000;49.88032
 376.96;   53.923;   -4.959;    0.000;58.88243
 377.56;   39.931;   39.037;    0.000; 0.89454
 378.15;  -37.071;  -87.962;    0.000;50.89177
 378.75;    0.923;   63.041;    0.000;-62.11836
 379.35;  -26.075;  -26.960;    0.000; 0.88429
 379.94;   39.920;   54.042;    0.000;-14.12209
 380.54;  -55.083;   -0.956;    0.000;-54.12673
 381.13;  -88.077;  -68.959;    0.000;-19.11860
 381.73;  -11.064; -106.966;    0.000;95.90165
 382.32;  -92.059; -116.969;    0.000;24.90973
 382.92; -119.076; -107.960;    0.000;-11.11619
 383.52;  -31.071;  -57.962;    0.000;26.89171
 384.11;  -47.076;    3.041;    0.000;-50.11667
 384.71;  -23.083;   -2.956;    0.000;-20.12734
 385.30;    8.920;  -36.957;    0.000;45.87688
 385.90;   28.925;  -58.960;    0.000;87.88472
 386.49;    2.918;  -35.956;    0.000;38.87477
 387.09;   56.915;   82.045;    0.000;-25.12981
 387.68;  -25.072;  -95.961;    0.000;70.88893
 388.28;  -89.073;  -73.961;    0.000;-15.11215
 388.87;  350.937;  228.034;    0.000;122.90334
 389.47;  -76.082; -106.956;    0.000;30.87435
 390.07;   -5.076;  -23.960;    0.000;18.88387
 390.66;  -28.070;  -54.963;    0.000;26.89303
 391.26;  -16.080;  -39.958;    0.000;23.87797
 391.85;  -90.077;  -88.959;    0.000;-1.11757
 392.45;  -25.078;   -3.958;    0.000;-21.12023
 393.04;  -66.067;  -48.964;    0.000;-17.10245
 393.64;  -51.070; -121.963;    0.000;70.89237
 394.23;  -17.075;  -50.960;    0.000;33.88490
 394.83;  -40.070; -108.963;    0.000;68.89243
 395.42;  -32.087;  -32.953;    0.000; 0.86591
 396.02;   71.932;  -30.964;    0.000;102.89556
 396.61;  -59.084;  -79.955;    0.000;20.87134
 397.21;   15.924;  -29.960;    0.000;45.88411
 397.80;14040.926;13716.039;    0.000;324.88713
 398.40;  116.925;   97.040;    0.000;19.88448
 398.99;  -15.075;  -26.960;    0.000;11.88508
 399.59;  -93.082;  -36.957;    0.000;-56.12499
 400.18;  -75.074;  -69.961;    0.000;-5.11336
 400.78;  -69.073;   -0.961;    0.000;-68.11155
 401.37;  -71.064;  -36.966;    0.000;-34.09745
 401.96; -105.078;   -1.958;    0.000;-103.11962
 402.56;  -34.073;  -87.961;    0.000;53.88839
 403.15;  -47.074;  -69.961;    0.000;22.88713
 403.75;   53.933;  -51.964;    0.000;105.89713
 404.34;  -71.077;  -68.959;    0.000;-2.11830
 404.94; -124.075;  -45.960;    0.000;-78.11571
 405.53; -118.079; -112.958;    0.000;-5.12119
 406.13;  -29.081;   42.043;    0.000;-71.12360
 406.72;  -70.065; -108.965;    0.000;38.89984
 407.32;  -39.075;  -91.960;    0.000;52.88484
 407.91;   42.927;   -9.961;    0.000;52.88851
 408.50;  -76.061;  -47.968;    0.000;-28.09323
 409.10;  -14.073;  -13.961;    0.000;-0.11137
 409.69;    3.934;    0.035;    0.000; 3.89828
 410.29;  -71.068;  -76.964;    0.000; 5.89568
 410.88;  -68.072;  -73.962;    0.000; 5.88948
 411.47;  -67.067;  -34.964;    0.000;-32.10335
 412.07;  -28.068;  -69.964;    0.000;41.89635
 412.66;  -57.068;  -60.964;    0.000; 3.89550
 413.26;  -99.064;  -51.966;    0.000;-47.09883
 413.85;  -81.063;  -75.966;    0.000;-5.09684
 414.45;   50.929;   31.038;    0.000;19.89038
 415.04;  -85.064;  -99.966;    0.000;14.90207
 415.63;   -0.072;   36.038;    0.000;-36.10974
 416.23;  -43.072;  -12.962;    0.000;-30.10998
 416.82;   51.926;   -0.960;    0.000;52.88622
 417.41;   21.940;  -28.968;    0.000;50.90840
 418.01;   27.930;   13.037;    0.000;14.89279
 418.60;  -63.075;  -72.960;    0.000; 9.88520
 419.20;  -89.067;  -65.964;    0.000;-23.10305
 419.79;  -25.063;  -62.966;    0.000;37.90304
 420.38;  -22.066;  -59.965;    0.000;37.89888
 420.98;  -79.063; -111.966;    0.000;32.90334
 421.57;  -53.069;  -99.963;    0.000;46.89484
 422.16;   13.941;  -41.969;    0.000;55.90948
 422.76;  -46.058;  -24.969;    0.000;-21.08943
 423.35;  -96.066;  -80.965;    0.000;-15.10046
 423.94;   78.940;  121.032;    0.000;-42.09172
 424.54;  -28.057;    5.030;    0.000;-33.08702
 425.13;  107.929;   38.038;    0.000;69.89147
 425.73;   -6.062;   61.033;    0.000;-67.09516
 426.32;  -83.066;  -41.965;    0.000;-41.10130
 426.91;   25.944;   -5.970;    0.000;31.91406
 427.51;   24.947;   15.028;    0.000; 9.91870
 428.10;   26.941;   52.031;    0.000;-25.09015
 428.69;  -78.059;  -46.968;    0.000;-31.09100
 429.28;  -73.070;  -61.962;    0.000;-11.10793
 429.88;  -46.064;  -57.966;    0.000;11.90111
 430.47;  -25.053;  -36.971;    0.000;11.91804
 431.06;  -40.059;  113.031;    0.000;-153.09039
 431.66;   -8.056;  -57.970;    0.000;49.91406
 432.25; -112.059; -105.969;    0.000;-6.09027
 432.84;  -74.051;  -85.973;    0.000;11.92136
 433.44;  -38.066;  -43.965;    0.000; 5.89954
 434.03; -145.052;  -73.972;    0.000;-71.07937
 434.62;   28.942;   -9.969;    0.000;38.91045
 435.22;  -63.043;    6.023;    0.000;-69.06551
 435.81;  -70.056;  -81.970;    0.000;11.91443
 436.40;  -58.049;  -64.974;    0.000; 6.92485
 436.99;  -92.058;  -93.969;    0.000; 1.91069
 437.59;  -41.056;  -47.970;    0.000; 6.91461
 438.18;  -35.050;  -17.973;    0.000;-17.07714
 438.77;  -68.049; -109.974;    0.000;41.92491
 439.36; -136.058;  -59.969;    0.000;-76.08853
 439.96;    6.956;  -11.977;    0.000;18.93311
 440.55; -118.054;  -54.971;    0.000;-63.08208
 441.14;   -1.049;  -21.974;    0.000;20.92431
 441.73;  -35.066;   -1.965;    0.000;-33.10100
 442.33;  -45.061;  -68.968;    0.000;23.90713
 442.92;   63.954;   31.025;    0.000;32.92943
 443.51;  -40.054;  -75.971;    0.000;35.91762
 444.10;  -22.057;   18.030;    0.000;-40.08756
 444.70;  -61.045;  -91.976;    0.000;30.93034
 445.29;  -58.060; -125.968;    0.000;67.90744
 445.88;  -89.055;  -46.970;    0.000;-42.08509
 446.47;   -5.045;   55.024;    0.000;-60.06948
 447.07; -106.048; -115.975;    0.000; 9.92696
 447.66;   29.943;    1.030;    0.000;28.91244
 448.25;   -6.050;    2.027;    0.000;-8.07720
 448.84; -136.052;  -94.972;    0.000;-41.07949
 449.43;   85.961;  -26.979;    0.000;112.94058
 450.03;   15.936;   45.034;    0.000;-29.09829
 450.62;  -44.058;  -41.969;    0.000;-2.08955
 451.21;  -58.061;  -53.967;    0.000;-4.09395
 451.80;  176.949;   72.027;    0.000;104.92172
 452.39;  -42.047;  -26.975;    0.000;-15.07280
 452.99;  -81.044; -125.977;    0.000;44.93329
 453.58;  -37.045;  -81.976;    0.000;44.93106
 454.17;  -38.035; -101.981;    0.000;63.94661
 454.76;   54.960;   -8.979;    0.000;63.93925
 455.35;   75.956;   48.024;    0.000;27.93238
 455.95;  -58.051;  -35.973;    0.000;-22.07804
 456.54;  -64.039; -109.979;    0.000;45.93974
 457.13;   23.950;   38.026;    0.000;-14.07605
 457.72;  -42.036;  -46.981;    0.000; 4.94480
 458.31; -129.038; -132.980;    0.000; 3.94185
 458.90;   59.952;  -44.975;    0.000;104.92696
 459.50;  -91.050;  -17.973;    0.000;-73.07635
 460.09;  -15.053; -105.972;    0.000;90.91858
 460.68;  -32.046; -132.976;    0.000;100.92979
 461.27;  -40.048;  -28.975;    0.000;-11.07298
 461.86;  -65.043;  -39.977;    0.000;-25.06599
 462.45;  -11.027;   -5.986;    0.000;-5.04146
 463.04; -121.049; -101.974;    0.000;-19.07473
 463.64;   52.967;   97.017;    0.000;-44.04990
 464.23;    4.953;  -31.975;    0.000;36.92811
 464.82;   23.958;   -4.978;    0.000;28.93558
 465.41;  -41.027; -109.986;    0.000;68.95914
 466.00;   -0.042; -135.978;    0.000;135.93594
 466.59;  -73.030; -120.984;    0.000;47.95450
 467.18;  -11.034;  -42.982;    0.000;31.94860
 467.77;  -79.039;  -47.979;    0.000;-31.06020
 468.37;  -46.047;  -61.975;    0.000;15.92726
 468.96;    8.952;  -32.975;    0.000;41.92702
 469.55;   49.957;   31.023;    0.000;18.93461
 470.14;  -87.047;  -72.975;    0.000;-14.07207
 470.73;   44.948;    1.028;    0.000;43.92081
 471.32;  -18.039;   -7.979;    0.000;-10.06056
 471.91;   64.963;  -74.980;    0.000;139.94353
 472.50;  -78.053;  -79.972;    0.000; 1.91846
 473.09;    6.970;  -92.984;    0.000;99.95474
 473.68;  112.949;  111.027;    0.000; 1.92184
 474.27;  -32.032;  -74.983;    0.000;42.95113
 474.86;  -65.041; -128.978;    0.000;63.93672
 475.46;  -16.036;  -36.981;    0.000;20.94504
 476.05;  141.964;  110.019;    0.000;31.94450
 476.64; -101.034;  -50.982;    0.000;-50.05279
 477.23;  -11.039;  -64.979;    0.000;53.93980
 477.82;  -58.036;  -86.981;    0.000;28.94480
 478.41;  -57.036;  -87.981;    0.000;30.94528
 479.00;  -28.039;  -51.979;    0.000;23.94004
 479.59;  -18.045;  -16.976;    0.000;-1.06954
 480.18;   90.968;   27.017;    0.000;63.95083
 480.77;  -48.033;  -46.983;    0.000;-1.04990
 481.36;  -56.032;  -44.983;    0.000;-11.04948
 481.95;  -27.040;  -22.979;    0.000;-4.06147
 482.54; -134.048;  -40.974;    0.000;-93.07418
 483.13;  -22.041;  -83.978;    0.000;61.93715
 483.72;  -63.030;  -51.984;    0.000;-11.04592
 484.31;  -83.035;  -83.981;    0.000; 0.94588
 484.90;   -7.034;  -47.982;    0.000;40.94781
 485.49;  -46.025;  -97.987;    0.000;51.96185
 486.08;   -4.031;  -44.984;    0.000;40.95318
 486.67;   36.972;    9.015;    0.000;27.95770
 487.26;   -1.028;  -34.985;    0.000;33.95655
 487.85;  -87.035; -120.982;    0.000;33.94691
 488.44;  -52.041;  -77.978;    0.000;25.93733
 489.03;   22.968;   16.017;    0.000; 6.95119
 489.62;  -19.028;  -95.985;    0.000;76.95727
 490.21;   -0.033;  -80.982;    0.000;80.94968
 490.80;   44.971;  -44.985;    0.000;89.95601
 491.39;  -51.033; -145.982;    0.000;94.94950
 491.98;   63.970;   37.016;    0.000;26.95414
 492.57;   32.977;    9.012;    0.000;23.96469
 493.16;   24.962;  -32.980;    0.000;57.94197
 493.75;   60.963;  -47.980;    0.000;108.94305
 494.34;   58.965;  -49.981;    0.000;108.94673
 494.93;  -17.026;  -82.986;    0.000;65.96059
 495.52;   10.962;  -67.980;    0.000;78.94191
 496.11;   -5.037; -103.981;    0.000;98.94396
 496.70;   20.954; -104.975;    0.000;125.92907
 497.29;   49.964;  -59.981;    0.000;109.94534
 497.88;  117.968;  -87.983;    0.000;205.95022
 498.47;  129.968;  -48.983;    0.000;178.95161
 499.06;  199.962;   59.020;    0.000;140.94215
 499.64;   24.970;  -47.984;    0.000;72.95384
 500.23;  151.965;  -48.981;    0.000;200.94631
 500.82;   39.966;  -20.982;    0.000;60.94829
 501.41;  187.959;   25.022;    0.000;162.93690
 502.00;  136.963;  -17.980;    0.000;154.94281
 502.59;  212.967;   45.018;    0.000;167.94968
 503.18;  120.966;  -87.982;    0.000;208.94739
 503.77;   98.966; -164.982;    0.000;263.94763
 504.36;  332.968;   47.017;    0.000;285.95076
 504.95;  168.967;  -15.982;    0.000;184.94884
 505.54;  280.965;  -14.981;    0.000;295.94576
 506.12;  376.966;   13.018;    0.000;363.94781
 506.71;  223.966;  -77.982;    0.000;301.94793
 507.30;  202.957;  -70.977;    0.000;273.93425
 507.89;  330.957;  -70.977;    0.000;401.93461
 508.48;  318.969;  -75.983;    0.000;394.95251
 509.07;  360.953;  -48.975;    0.000;409.92841
 509.66;  454.970;  -19.984;    0.000;474.95396
 510.25;  383.958;  -62.978;    0.000;446.93558
 510.84;  419.962;  -51.980;    0.000;471.94245
 511.42;  429.966;  -52.982;    0.000;482.94721
 512.01;  642.982;  127.010;    0.000;515.97264
 512.60;  597.963;  -14.980;    0.000;612.94359
 513.19;  514.962;  -81.980;    0.000;596.94197
 513.78;  700.960; -100.979;    0.000;801.93938
 514.37;  763.970;    5.016;    0.000;758.95420
 514.95;  791.976;  -49.987;    0.000;841.96276
 515.54;  859.967;  -27.983;    0.000;887.95010
 516.13;  839.963;  -93.980;    0.000;933.94359
 516.72;  982.969;  -74.984;    0.000;1057.95281
 517.31; 1012.970;   -2.984;    0.000;1015.95396
 517.90;  972.972;  -75.985;    0.000;1048.95667
 518.48; 1154.969; -138.983;    0.000;1293.95185
 519.07; 1276.961;   28.021;    0.000;1248.94070
 519.66; 1507.974;   47.014;    0.000;1460.95956
 520.25; 1330.971; -117.985;    0.000;1448.95601
 520.84; 1458.965;  -88.981;    0.000;1547.94679
 521.43; 1573.973;  -37.985;    0.000;1611.95800
 522.01; 1870.972;  109.015;    0.000;1761.95715
 522.60; 1864.968;   59.017;    0.000;1805.95070
 523.19; 1889.970;  -87.984;    0.000;1977.95330
 523.78; 2051.965;  -54.981;    0.000;2106.94625
 524.37; 2219.961;  -69.979;    0.000;2289.93962
 524.95; 2493.974;  -59.986;    0.000;2553.96035
 525.54; 2506.965;  -59.981;    0.000;2566.94582
 526.13; 2547.967;  -80.982;    0.000;2628.94902
 526.72; 2922.980;  -64.989;    0.000;2987.96927
 527.30; 3118.973;  -65.985;    0.000;3184.95824
 527.89; 3353.964;  -82.981;    0.000;3436.94510
 528.48; 3567.974; -122.986;    0.000;3690.96005
 529.07; 3764.966;  -55.982;    0.000;3820.94745
 529.65; 4161.976;   39.013;    0.000;4122.96384
 530.24; 4543.965;  -71.982;    0.000;4615.94709
 530.83; 4575.975;  -93.987;    0.000;4669.96203
 531.42; 4836.972;  -32.985;    0.000;4869.95782
 532.00; 5440.969;  -68.983;    0.000;5509.95197
 532.59; 5563.979;  -37.989;    0.000;5601.96830
 533.18; 5920.979;  -58.989;    0.000;5979.96758
 533.77; 6582.967;  134.017;    0.000;6448.95016
 534.35; 6686.972;  -36.985;    0.000;6723.95691
 534.94; 7352.973;  -41.985;    0.000;7394.95812
 535.53; 7634.980;  -93.989;    0.000;7728.96963
 536.12; 8180.964;  -76.981;    0.000;8257.94480
 536.70; 8449.982; -105.990;    0.000;8555.97192
 537.29; 9023.976;  -65.987;    0.000;9089.96300
 537.88; 9536.976;  -55.987;    0.000;9592.96336
 538.46; 9977.970;  -53.984;    0.000;10031.95462
 539.05;10852.977;  -46.987;    0.000;10899.96402
 539.64;11131.981;  -53.990;    0.000;11185.97083
 540.23;11964.973;   22.014;    0.000;11942.95932
 540.81;12434.979;   77.011;    0.000;12357.96740
 541.40;13229.966;  -31.982;    0.000;13261.94721
 541.99;13742.973;  -92.986;    0.000;13835.95932
 542.57;14548.976;  -27.987;    0.000;14576.96324
 543.16;15312.969;  -45.984;    0.000;15358.95281
 543.75;15835.984;  -25.992;    0.000;15861.97583
 544.33;16965.976;  -36.987;    0.000;17002.96264
 544.92;17715.984;  -76.991;    0.000;17792.97493
 545.51;18312.974;  -62.986;    0.000;18375.96083
 546.09;19176.970;  -27.984;    0.000;19204.95378
 546.68;20294.971;   46.016;    0.000;20248.95541
 547.27;20937.981;  -58.990;    0.000;20996.97059
 547.85;22224.978;  -99.988;    0.000;22324.96679
 548.44;22836.982; -131.990;    0.000;22968.97204
 549.03;24166.983;  -28.991;    0.000;24195.97354
 549.61;25333.970; -123.984;    0.000;25457.95396
 550.20;25925.979;   -2.989;    0.000;25928.96794
 550.78;26900.974;   49.014;    0.000;26851.96029
 551.37;27792.989;  -50.994;    0.000;27843.98343
 551.96;28903.983;  -80.991;    0.000;28984.97469
 552.54;29947.963; -112.980;    0.000;30060.94335
 553.13;30829.972;  -95.985;    0.000;30925.95631
 553.72;31986.976; -104.987;    0.000;32091.96300
 554.30;32446.989;    6.006;    0.000;32440.98246
 554.89;33582.988;  -55.994;    0.000;33638.98144
 555.47;34390.979;  -96.989;    0.000;34487.96746
 556.06;35485.973;  -40.986;    0.000;35526.95860
 556.65;36001.978;   -8.988;    0.000;36010.96559
 557.23;36861.976;   14.013;    0.000;36847.96396
 557.82;36675.983;  -70.991;    0.000;36746.97336
 558.40;37939.979;  -53.989;    0.000;37993.96728
 558.99;38293.964;  -94.981;    0.000;38388.94444
 559.58;38413.971;  -49.985;    0.000;38463.95625
 560.16;38913.965;  -69.981;    0.000;38983.94582
 560.75;39296.969; -126.984;    0.000;39423.95287
 561.33;39814.978;   62.012;    0.000;39752.96692
 561.92;40547.971;  -86.985;    0.000;40634.95571
 562.50;40209.980;  -99.990;    0.000;40309.96987
 563.09;40829.976; -103.987;    0.000;40933.96360
 563.68;40598.978;  -71.988;    0.000;40670.96619
 564.26;40729.974; -103.986;    0.000;40833.96041
 564.85;41238.977;  -27.988;    0.000;41266.96426
 565.43;40687.973;  -50.986;    0.000;40738.95932
 566.02;41717.975;   -4.987;    0.000;41722.96185
 566.60;40561.981;  -60.990;    0.000;40622.97144
 567.19;40477.973;  -28.986;    0.000;40506.95902
 567.77;40655.987;  -38.993;    0.000;40694.97981
 568.36;40180.985;   10.008;    0.000;40170.97632
 568.94;39663.980;  -79.989;    0.000;39743.96890
 569.53;39727.978;    3.012;    0.000;39724.96649
 570.11;39419.988;   -1.994;    0.000;39421.98132
 570.70;39218.980; -107.989;    0.000;39326.96902
 571.28;38650.967;  -41.982;    0.000;38692.94890
 571.87;38112.988; -104.993;    0.000;38217.98126
 572.45;37726.983;    4.009;    0.000;37722.97324
 573.04;37194.969;  -91.984;    0.000;37286.95257
 573.62;36377.980; -128.989;    0.000;36506.96975
 574.21;35831.978;   92.012;    0.000;35739.96613
 574.79;35138.965;  -13.981;    0.000;35152.94649
 575.38;34817.980; -116.989;    0.000;34934.96921
 575.96;35007.987;  -56.993;    0.000;35064.98053
 576.55;33801.983; -104.991;    0.000;33906.97427
 577.13;33380.986;  -78.993;    0.000;33459.97885
 577.72;32759.982;  -51.990;    0.000;32811.97180
 578.30;31741.975;  -51.987;    0.000;31793.96143
 578.89;31416.988; -112.994;    0.000;31529.98222
 579.47;30507.976;  -33.987;    0.000;30541.96270
 580.06;30042.971;    8.016;    0.000;30034.95480
 580.64;29626.981;  -94.990;    0.000;29721.97011
 581.23;28929.980;  -68.989;    0.000;28998.96975
 581.81;28002.976;   40.013;    0.000;27962.96384
 582.39;26896.981; -131.990;    0.000;27028.97107
 582.98;26847.970;  -78.984;    0.000;26926.95438
 583.56;25933.968;  -11.983;    0.000;25945.95028
 584.15;25373.975;  -29.986;    0.000;25403.96095
 584.73;24707.968;  -14.983;    0.000;24722.95155
 585.32;24360.975;   13.013;    0.000;24347.96131
 585.90;23956.969;  182.017;    0.000;23774.95215
 586.48;22793.978;  -52.988;    0.000;22846.96595
 587.07;21917.979;  -19.989;    0.000;21937.96740
 587.65;21728.979;   51.011;    0.000;21677.96716
 588.24;20928.981;  -57.990;    0.000;20986.97071
 588.82;19948.979;  -93.989;    0.000;20042.96836
 589.41;21519.982; 1717.009;    0.000;19802.97312
 589.99;19045.973;  -86.986;    0.000;19132.95866
 590.57;18372.986;  -62.993;    0.000;18435.97855
 591.16;17864.972;   28.015;    0.000;17836.95703
 591.74;17308.980;   -3.989;    0.000;17312.96921
 592.32;16576.983;  -36.991;    0.000;16613.97427
 592.91;16275.971;    4.015;    0.000;16271.95595
 593.49;15554.984;   -2.991;    0.000;15557.97499
 594.08;15290.974; -106.986;    0.000;15397.95986
 594.66;14780.983;  -50.991;    0.000;14831.97385
 595.24;13782.984;  -76.992;    0.000;13859.97595
 595.83;13542.977;  -46.988;    0.000;13589.96450
 596.41;13191.990;  -35.995;    0.000;13227.98518
 596.99;12745.985;   15.008;    0.000;12730.97650
 597.58;12464.982;  -37.990;    0.000;12502.97264
 598.16;12025.968;    4.017;    0.000;12021.95149
 598.74;11669.981;   96.010;    0.000;11573.97077
 599.33;11074.976;  -34.987;    0.000;11109.96246
 599.91;10813.974; -128.986;    0.000;10942.95974
 600.49;10580.971;  -51.985;    0.000;10632.95547
 601.08;10253.984;   27.009;    0.000;10226.97505
 601.66; 9637.983;  -88.991;    0.000;9726.97385
 602.24; 9251.986; -127.992;    0.000;9379.97806
 602.83; 9045.985;  -89.992;    0.000;9135.97710
 603.41; 8916.983;  -28.991;    0.000;8945.97445
 603.99; 8435.959;   10.022;    0.000;8425.93727
 604.58; 8345.981;  -60.990;    0.000;8406.97035
 605.16; 8008.976;  -94.987;    0.000;8103.96366
 605.74; 7827.980;  -75.989;    0.000;7903.96921
 606.33; 7538.982;  -83.990;    0.000;7622.97240
 606.91; 7162.973;   16.014;    0.000;7146.95914
 607.49; 7187.976;  -47.987;    0.000;7235.96342
 608.07; 6772.984;   20.008;    0.000;6752.97559
 608.66; 6696.982;  -88.990;    0.000;6785.97234
 609.24; 6491.983;  -60.991;    0.000;6552.97366
 609.82; 6399.978;  -84.988;    0.000;6484.96643
 610.41; 6082.979; -122.989;    0.000;6205.96746
 610.99; 5606.981; -138.990;    0.000;5745.97125
 611.57; 5588.988;  -58.994;    0.000;5647.98192
 612.15; 5310.979;  -37.989;    0.000;5348.96752
 612.74; 5036.988;    7.006;    0.000;5029.98216
 613.32; 4981.980;  -38.989;    0.000;5020.96878
 613.90; 4651.982;  -27.990;    0.000;4679.97264
 614.48; 4552.977;  -40.988;    0.000;4593.96444
 615.07; 4471.969;  -63.983;    0.000;4535.95227
 615.65; 4244.991; -101.995;    0.000;4346.98638
 616.23; 4021.980;   22.011;    0.000;3999.96896
 616.81; 3796.965;  -80.981;    0.000;3877.94631
 617.40; 3796.957;  -10.977;    0.000;3807.93353
 617.98; 3688.949;  -94.973;    0.000;3783.92172
 618.56; 3512.968;  -73.983;    0.000;3586.95064
 619.14; 3291.963;  -91.980;    0.000;3383.94275
 619.72; 3318.963; -144.980;    0.000;3463.94347
 620.31; 3200.971;    5.015;    0.000;3195.95613
 620.89; 3110.976;  -27.987;    0.000;3138.96348
 621.47; 2942.975; -129.986;    0.000;3072.96113
 622.05; 2784.976;  -72.987;    0.000;2857.96390
 622.63; 2755.970;  -89.984;    0.000;2845.95432
 623.22; 2758.985; -123.992;    0.000;2882.97686
 623.80; 2509.969;  -86.983;    0.000;2596.95215
 624.38; 2635.979;   36.011;    0.000;2599.96830
 624.96; 2452.970;  -75.984;    0.000;2528.95438
 625.54; 2330.973;  -99.985;    0.000;2430.95794
 626.13; 2233.983;  -36.991;    0.000;2270.97445
 626.71; 2573.976;  398.013;    0.000;2175.96312
 627.29; 2076.961;  -44.979;    0.000;2121.93974
 627.87; 1894.975;  -52.987;    0.000;1947.96185
 628.45; 1847.976; -100.987;    0.000;1948.96348
 629.03; 1925.973;   31.015;    0.000;1894.95818
 629.62; 1719.972;  -93.985;    0.000;1813.95679
 630.20; 1656.973; -152.986;    0.000;1809.95866
 630.78; 1565.978;  -89.988;    0.000;1655.96686
 631.36; 1544.967;  -16.983;    0.000;1561.95004
 631.94; 1635.979;  -37.989;    0.000;1673.96848
 632.52; 1522.982;  -19.991;    0.000;1542.97300
 633.10; 1320.968;  -13.983;    0.000;1334.95028
 633.68; 1381.970;  -59.984;    0.000;1441.95402
 634.27; 1332.972; -113.985;    0.000;1446.95739
 634.85; 1244.969;  -55.983;    0.000;1300.95227
 635.43; 1185.960; -144.978;    0.000;1330.93793
 636.01; 1124.976; -161.987;    0.000;1286.96360
 636.59; 1153.974; -118.986;    0.000;1272.96029
 637.17; 1156.954;  -17.975;    0.000;1174.92895
 637.75; 1110.966;  -38.982;    0.000;1149.94847
 638.33;  983.965;  -60.982;    0.000;1044.94691
 638.91; 1066.969;  -17.983;    0.000;1084.95179
 639.50;  941.958;  -85.978;    0.000;1027.93600
 640.08;  914.971;  -89.984;    0.000;1004.95533
 640.66;  867.971; -117.985;    0.000;985.95544
 641.24;  870.971;   16.015;    0.000;854.95555
 641.82;  941.971;   -9.985;    0.000;951.95566
 642.40;  821.971;  -57.985;    0.000;879.95577
 642.98;  763.971;  -53.985;    0.000;817.95588
 643.56;  756.971;  -69.985;    0.000;826.95599
 644.14;  763.971;  -50.985;    0.000;814.95610
 644.72;  771.971;  -13.985;    0.000;785.95621
 645.30;  679.972;  -25.985;    0.000;705.95631
 645.88;  588.972;  -41.985;    0.000;630.95642
 646.46;  642.972;  -29.985;    0.000;672.95653
 647.04;  598.972; -136.985;    0.000;735.95664
 647.62;  736.972;   14.015;    0.000;722.95675
 648.20;  616.972;   38.015;    0.000;578.95686
 648.78;  664.972;   20.015;    0.000;644.95697
 649.36;  501.972;  -91.985;    0.000;593.95708
 649.94;  425.972;  -64.985;    0.000;490.95719
 650.52;  478.972;  -97.985;    0.000;576.95730
 651.11;  502.972; -119.985;    0.000;622.95741
 651.69;  414.972;  -34.985;    0.000;449.95752
 652.27;  519.972;  -18.985;    0.000;538.95763
 652.85;  321.972;  -61.985;    0.000;383.95774
 653.43;  413.973;  -87.985;    0.000;501.95785
 654.01;  327.973; -140.985;    0.000;468.95796
 654.59;  359.973; -115.985;    0.000;475.95807
 655.17;  266.973;  -90.985;    0.000;357.95818
 655.74;  249.973; -109.985;    0.000;359.95829
 656.32;  293.973;  -22.986;    0.000;316.95839
 656.90;  278.973; -120.986;    0.000;399.95850
 657.48;  376.973;   49.014;    0.000;327.95861
 658.06;  267.973;  -23.986;    0.000;291.95872
 658.64;  331.973;   12.014;    0.000;319.95883
 659.22;  213.973; -111.986;    0.000;325.95894
 659.80;  241.973;  -99.986;    0.000;341.95905
 660.38;  192.973;  -67.986;    0.000;260.95916
 660.96;  182.973; -122.986;    0.000;305.95927
 661.54;  182.974; -102.986;    0.000;285.95938
 662.12;  221.974;   -4.986;    0.000;226.95949
 662.70;  233.974; -102.986;    0.000;336.95960
 663.28;  158.974;  -28.986;    0.000;187.95971
 663.86;  259.974;   16.014;    0.000;243.95982
 664.44;   63.974;  -78.986;    0.000;142.95993
 665.02;  181.974;  -12.986;    0.000;194.96004
 665.60;  143.974;  -64.986;    0.000;208.96015
 666.18;  223.974;  -40.986;    0.000;264.96026
 666.75;  228.974;   57.014;    0.000;171.96037
 667.33;   66.974; -141.986;    0.000;208.96048
 667.91;  399.974;  192.014;    0.000;207.96058
 668.49;  222.974;   -0.986;    0.000;223.96069
 669.07;  134.974;  -67.986;    0.000;202.96080
 669.65;   88.975;  -99.986;    0.000;188.96091
 670.23;   17.975;  -85.986;    0.000;103.96102
 670.81;   26.975; -140.986;    0.000;167.96113
 671.39;  -18.025;  -83.987;    0.000;65.96124
 671.97;   77.975;  -80.987;    0.000;158.96135
 672.54;   50.975;  -78.987;    0.000;129.96146
 673.12;  183.975;    8.013;    0.000;175.96157
 673.70;   51.975;  -35.987;    0.000;87.96168
 674.28;  135.975;  -26.987;    0.000;162.96179
 674.86;   57.975; -117.987;    0.000;175.96190
 675.44;   75.975;  -65.987;    0.000;141.96201
 676.02;   28.975;  -30.987;    0.000;59.96212
 676.59;   78.975;    9.013;    0.000;69.96223
 677.17;   46.975;  -92.987;    0.000;139.96234
 677.75;  131.976;  -41.987;    0.000;173.96245
 678.33;  -47.024; -133.987;    0.000;86.96256
 678.91;   20.976;  -87.987;    0.000;108.96266
 679.49;    5.976;  -74.987;    0.000;80.96277
 680.06;   29.976;  -92.987;    0.000;122.96288
 680.64;  -31.024;  -99.987;    0.000;68.96299
 681.22;  -13.024;  -39.987;    0.000;26.96310
 681.80;   56.976;  -76.987;    0.000;133.96321
 682.38;  179.976;   60.013;    0.000;119.96332
 682.96;   27.976;  -25.987;    0.000;53.96343
 683.53;   80.976;  -52.987;    0.000;133.96354
 684.11;    9.976;  -18.987;    0.000;28.96365
 684.69;   28.976;  -94.987;    0.000;123.96376
 685.27;   92.976;   29.013;    0.000;63.96387
 685.85;  -29.023; -159.987;    0.000;130.96398
 686.42;    6.977;  -83.988;    0.000;90.96409
 687.00;   13.977;  -61.988;    0.000;75.96420
 687.58;   10.977;  -68.988;    0.000;79.96431
 688.16;  -27.023;  -81.988;    0.000;54.96442
 688.73;   -0.023;  -28.988;    0.000;28.96453
 689.31;   43.977;   59.012;    0.000;-15.03536
 689.89;   45.977;  -11.988;    0.000;57.96475
 690.47;  115.977;  105.012;    0.000;10.96485
 691.04;   -5.023;  -55.988;    0.000;50.96496
 691.62;  126.977;   13.012;    0.000;113.96507
 692.20;  -61.023; -149.988;    0.000;88.96518
 692.78;   69.977;  -10.988;    0.000;80.96529
 693.35;   -7.023;  -34.988;    0.000;27.96540
 693.93;  -68.022;  -36.988;    0.000;-31.03449
 694.51;  -94.022; -116.988;    0.000;22.96562
 695.09;   39.978; -123.988;    0.000;163.96573
 695.66;  -42.022;  -48.988;    0.000; 6.96584
 696.24; -107.022; -121.988;    0.000;14.96595
 696.82;  -45.022;  -59.988;    0.000;14.96606
 697.39;  -36.022;  -52.988;    0.000;16.96617
 697.97;  -19.022;  -78.988;    0.000;59.96628
 698.55;   -0.022;   23.012;    0.000;-23.03361
 699.13;  -33.022; -117.988;    0.000;84.96650
 699.70;  -62.022; -118.988;    0.000;56.96661
 700.28;  -55.022;  -93.988;    0.000;38.96672
 700.86;  -65.022; -113.988;    0.000;48.96683
 701.43;  -77.022;  -59.988;    0.000;-17.03307
 702.01;  -22.021;  -37.989;    0.000;15.96704
 702.59;   13.979;  -28.989;    0.000;42.96715
 703.16;   -7.021;  -91.989;    0.000;84.96726
 703.74;  -38.021; -111.989;    0.000;73.96737
 704.32;  111.979;  -34.989;    0.000;146.96748
 704.89;  -38.021;  -91.989;    0.000;53.96759
 705.47;  -28.021;  -22.989;    0.000;-5.03230
 706.05;   22.979;   27.011;    0.000;-4.03219
 706.62;  -62.021;  -86.989;    0.000;24.96792
 707.20;   -3.021;  -90.989;    0.000;87.96803
 707.78;  -40.021;  -88.989;    0.000;48.96814
 708.35;  -57.021; -100.989;    0.000;43.96825
 708.93;   29.979;  -68.989;    0.000;98.96836
 709.51;  -90.021; -106.989;    0.000;16.96847
 710.08;  -97.020; -113.989;    0.000;16.96858
 710.66;   68.980;   -1.989;    0.000;70.96869
 711.23;  -46.020;  -44.989;    0.000;-1.03120
 711.81;   37.980;  -33.989;    0.000;71.96891
 712.39;   37.980;   30.011;    0.000; 7.96902
 712.96;  -32.020;  -81.989;    0.000;49.96912
 713.54;  -43.020;  -39.989;    0.000;-3.03077
 714.11;  -92.020; -133.989;    0.000;41.96934
 714.69;  -62.020; -119.989;    0.000;57.96945
 715.27;  -68.020;  -99.989;    0.000;31.96956
 715.84;   -1.020;  -51.989;    0.000;50.96967
 716.42;  -35.020;  -84.989;    0.000;49.96978
 716.99;  -49.020;  -83.990;    0.000;34.96989
 717.57;  317.980;  329.010;    0.000;-11.03000
 718.15;    2.981;  -98.990;    0.000;101.97011
 718.72;    5.981;  -26.990;    0.000;32.97022
 719.30;  -75.019;  -78.990;    0.000; 3.97033
 719.87;  -96.019; -104.990;    0.000; 8.97044
 720.45;  -74.019; -129.990;    0.000;55.97055
 721.02;  -56.019;  -74.990;    0.000;18.97066
 721.60;  -82.019; -139.990;    0.000;57.97077
 722.17;  -53.019; -118.990;    0.000;65.97088
 722.75;  -71.019;  -96.990;    0.000;25.97099
 723.33;  -90.019; -101.990;    0.000;11.97110
 723.90;    0.981;    4.010;    0.000;-3.02880
 724.48;  -28.019;  -74.990;    0.000;46.97131
 725.05;   17.981;   20.010;    0.000;-2.02858
 725.63;   10.981;   -5.990;    0.000;16.97153
 726.20;    9.982;  -45.990;    0.000;55.97164
 726.78;  -49.018;  -70.990;    0.000;21.97175
 727.35;   82.982;   14.010;    0.000;68.97186
 727.93; -124.018;  -46.990;    0.000;-77.02803
 728.50;  161.982;  118.010;    0.000;43.97208
 729.08;  -54.018;  -69.990;    0.000;15.97219
 729.65;  181.982;  108.010;    0.000;73.97230
 730.23;  -32.018;  -43.990;    0.000;11.97241
 730.80; -129.018; -115.990;    0.000;-13.02748
 731.38;  -16.018;  -55.990;    0.000;39.97263
 731.95;  113.982;   -1.991;    0.000;115.97274
 732.53;  -98.018;  -26.991;    0.000;-71.02715
 733.10;  -39.018;  -78.991;    0.000;39.97296
 733.68;  -52.018;  -84.991;    0.000;32.97307
 734.25;  -17.017;  -66.991;    0.000;49.97318
 734.82;  -92.017;  -81.991;    0.000;-10.02671
 735.40;  -80.017;  -83.991;    0.000; 3.97339
 735.97;   36.983;  -28.991;    0.000;65.97350
 736.55;   50.983;  -32.991;    0.000;83.97361
 737.12;  -44.017;  -82.991;    0.000;38.97372
 737.70; -115.017; -177.991;    0.000;62.97383
 738.27;  -61.017;  -88.991;    0.000;27.97394
 738.85;  -81.017;  -94.991;    0.000;13.97405
 739.42;  -92.017; -135.991;    0.000;43.97416
 739.99;  -99.017;  -79.991;    0.000;-19.02573
 740.57;  -45.017;  -49.991;    0.000; 4.97438
 741.14;  -48.017;  -94.991;    0.000;46.97449
 741.72;  -40.017; -110.991;    0.000;70.97460
 742.29;  -69.016; -144.991;    0.000;75.97471
 742.87;  -81.016; -100.991;    0.000;19.97482
 743.44;  -56.016;  -77.991;    0.000;21.97493
 744.01;  -29.016; -138.991;    0.000;109.97504
 744.59;  -37.016;  -49.991;    0.000;12.97515
 745.16;   27.984;  -11.991;    0.000;39.97526
 745.73;  -44.016;  -94.991;    0.000;50.97537
 746.31; -101.016; -139.991;    0.000;38.97547
 746.88;  -72.016; -141.992;    0.000;69.97558
 747.46;  -32.016;  -31.992;    0.000;-0.02431
 748.03;  -59.016;  -70.992;    0.000;11.97580
 748.60;  -29.016;  -30.992;    0.000; 1.97591
 749.18; -122.016;  -82.992;    0.000;-39.02398
 749.75;   56.984;   40.008;    0.000;16.97613
 750.32;  -43.015; -120.992;    0.000;77.97624
 750.90;  -79.015;  -84.992;    0.000; 5.97635
 751.47;   41.985;   62.008;    0.000;-20.02354
 752.04;    3.985;  -56.992;    0.000;60.97657
 752.62;  -97.015; -102.992;    0.000; 5.97668
 753.19;  -67.015;  -43.992;    0.000;-23.02321
 753.76;  -71.015; -114.992;    0.000;43.97690
 754.34;   23.985;   20.008;    0.000; 3.97701
 754.91;  -55.015;  -34.992;    0.000;-20.02288
 755.48;   37.985;  -34.992;    0.000;72.97723
 756.06;   64.985;   61.008;    0.000; 3.97734
 756.63;  104.985;   93.008;    0.000;11.97745
 757.20;  -95.015; -108.992;    0.000;13.97756
 757.78; -111.015; -104.992;    0.000;-6.02234
 758.35;  -78.014;  -29.992;    0.000;-48.02223
 758.92;    0.986;  -68.992;    0.000;69.97788
 759.50;  -71.014; -101.992;    0.000;30.97799
 760.07; -123.014;  -97.992;    0.000;-25.02190
 760.64;  -57.014; -102.992;    0.000;45.97821
 761.21;  -46.014;  -41.992;    0.000;-4.02168
 761.79;  -77.014;  -74.992;    0.000;-2.02157
 762.36;  -91.014;   -9.993;    0.000;-81.02146
 762.93;  -93.014; -147.993;    0.000;54.97865
 763.50; -154.014; -154.993;    0.000; 0.97876
 764.08;  -42.014;  -61.993;    0.000;19.97887
 764.65;  -32.014;   -4.993;    0.000;-27.02102
 765.22;  -73.014;  -51.993;    0.000;-21.02091
 765.79;  -38.014;  -92.993;    0.000;54.97920
 766.37;   19.987;  -99.993;    0.000;119.97931
 766.94;  -66.013;  -25.993;    0.000;-40.02058
 767.51;  -99.013; -114.993;    0.000;15.97953
 768.08;   -6.013;  -80.993;    0.000;74.97964
 768.66;   71.987;  -50.993;    0.000;122.97974
 769.23;    0.987;   15.007;    0.000;-14.02015
 769.80;  -90.013; -147.993;    0.000;57.97996
 770.37; -111.013;  -94.993;    0.000;-16.01993
 770.94;  -98.013;  -74.993;    0.000;-23.01982
 771.52;  -95.013; -120.993;    0.000;25.98029
 772.09;  -87.013;  -20.993;    0.000;-66.01960
 772.66;   53.987;   -2.993;    0.000;56.98051
 773.23;   66.987;  -11.993;    0.000;78.98062
 773.80;    1.987;  -22.993;    0.000;24.98073
 774.38;  -33.012;  -64.993;    0.000;31.98084
 774.95;   -5.012;    8.007;    0.000;-13.01905
 775.52;  -24.012; -117.993;    0.000;93.98106
 776.09;  -28.012;  -64.993;    0.000;36.98117
 776.66;  -38.012; -159.993;    0.000;121.98128
 777.24;  -22.012;  -69.994;    0.000;47.98139
 777.81;   -4.012;   39.006;    0.000;-43.01850
 778.38;  -31.012;  -87.994;    0.000;56.98161
 778.95;   12.988;  -54.994;    0.000;67.98172
 779.52; -100.012;  -56.994;    0.000;-43.01817
 780.09;   65.988;  128.006;    0.000;-62.01807
 780.66;  -17.012;  -37.994;    0.000;20.98204
 781.24;   18.988;   -4.994;    0.000;23.98215
 781.81;  -99.012; -118.994;    0.000;19.98226
 782.38;  -31.011;  -86.994;    0.000;55.98237
 782.95; -128.011;  -60.994;    0.000;-67.01752
 783.52;  -98.011;  -55.994;    0.000;-42.01741
 784.09;  -42.011;  -61.994;    0.000;19.98270
 784.66;  -11.011;   20.006;    0.000;-31.01719
 785.23;  -67.011;  -88.994;    0.000;21.98292
 785.80;  -29.011;  -78.994;    0.000;49.98303
 786.38;  -26.011;  -18.994;    0.000;-7.01686
 786.95;  -16.011;  -47.994;    0.000;31.98325
 787.52;  -79.011;  -94.994;    0.000;15.98336
 788.09; -101.011; -106.994;    0.000; 5.98347
 788.66;  -78.011; -156.994;    0.000;78.98358
 789.23;   79.989;   24.006;    0.000;55.98369
 789.80;  -93.011;  -46.994;    0.000;-46.01620
 790.37;  -91.010;  -93.994;    0.000; 2.98391
 790.94;   37.990;   49.006;    0.000;-11.01599
 791.51;  -50.010; -148.994;    0.000;98.98412
 792.08; -103.010; -104.995;    0.000; 1.98423
 792.65;  -82.010; -127.995;    0.000;45.98434
 793.22;  -25.010;  -23.995;    0.000;-1.01555
 793.80; -102.010;  -69.995;    0.000;-32.01544
 794.37;  -62.010;  -31.995;    0.000;-30.01533
 794.94;   98.990;   39.005;    0.000;59.98478
 795.51;  -10.010;  -68.995;    0.000;58.98489
 796.08;   -2.010;   15.005;    0.000;-17.01500
 796.65;  -66.010; -131.995;    0.000;65.98511
 797.22;  -60.010; -126.995;    0.000;66.98522
 797.79;  181.990;   94.005;    0.000;87.98533
 798.36;  -36.009;  -84.995;    0.000;48.98544
 798.93;  -78.009;  -67.995;    0.000;-10.01445
 799.50; -112.009;  -74.995;    0.000;-37.01434
 800.07; -117.009; -120.995;    0.000; 3.98577
 800.64;  -80.009;  -53.995;    0.000;-26.01412
 801.21;  -25.009;  -45.995;    0.000;20.98599
 801.78;  -60.009; -116.995;    0.000;56.98610
 802.35; -119.009;  -96.995;    0.000;-22.01380
 802.92;  -86.009;  -52.995;    0.000;-33.01369
 803.49;  -69.009; -103.995;    0.000;34.98642
 804.06;  -64.009; -115.995;    0.000;51.98653
 804.63;  -63.009;  -99.995;    0.000;36.98664
 805.20;    4.991;  -52.995;    0.000;57.98675
 805.77;  -44.009; -139.995;    0.000;95.98686
 806.34;  -62.008; -108.995;    0.000;46.98697
 806.91;  -43.008;   21.004;    0.000;-64.01292
 807.47; -111.008; -108.996;    0.000;-2.01281
 808.04;   -3.008;  -31.996;    0.000;28.98730
 808.61;  -35.008;  -84.996;    0.000;49.98741
 809.18;  -88.008;  -87.996;    0.000;-0.01248
 809.75;  -73.008; -103.996;    0.000;30.98763
 810.32;  -55.008;   -9.996;    0.000;-45.01226
 810.89;   42.992;   19.004;    0.000;23.98785
 811.46; -101.008;  -85.996;    0.000;-15.01204
 812.03;  -25.008;  -32.996;    0.000; 7.98807
 812.60;  -90.008;  -88.996;    0.000;-1.01182
 813.17;  -69.008;  -73.996;    0.000; 4.98828
 813.74;   77.992;   72.004;    0.000; 5.98839
 814.31;    9.993;  -33.996;    0.000;43.98850
 814.87;   39.993;  -15.996;    0.000;55.98861
 815.44;  -48.007; -102.996;    0.000;54.98872
 816.01;   13.993;   60.004;    0.000;-46.01117
 816.58; -120.007; -134.996;    0.000;14.98894
 817.15;  -26.007;   16.004;    0.000;-42.01095
 817.72;  -77.007; -136.996;    0.000;59.98916
 818.29;   20.993;   61.004;    0.000;-40.01073
 818.86;  -10.007;  -76.996;    0.000;66.98938
 819.42;  -19.007;  -30.996;    0.000;11.98949
 819.99;  -64.007;  -36.996;    0.000;-27.01040
 820.56; -150.007; -111.996;    0.000;-38.01029
 821.13;   40.993;   24.004;    0.000;16.98982
 821.70; -128.007; -107.996;    0.000;-20.01007
 822.27;  -69.006;  -83.997;    0.000;14.99004
 822.84;  -79.006;   -5.997;    0.000;-73.00985
 823.40; -146.006; -124.997;    0.000;-21.00974
 823.97;   16.994;   35.003;    0.000;-18.00963
 824.54;  -65.006;  -94.997;    0.000;29.99047
 825.11; -108.006;  -84.997;    0.000;-23.00942
 825.68;  116.994;  128.003;    0.000;-11.00931
 826.24;   -0.006;  -47.997;    0.000;47.99080
 826.81;  -75.006; -120.997;    0.000;45.99091
 827.38;  -34.006; -144.997;    0.000;110.99102
 827.95;  -69.006; -138.997;    0.000;69.99113
 828.52; -115.006;   19.003;    0.000;-134.00876
 829.08;   44.994;   81.003;    0.000;-36.00865
 829.65;  -89.006;  -85.997;    0.000;-3.00854
 830.22;  -56.005;   -4.997;    0.000;-51.00843
 830.79; -208.005; -140.997;    0.000;-67.00832
 831.36;  -91.005;  -88.997;    0.000;-2.00821
 831.92;  142.995;   77.003;    0.000;65.99190
 832.49;  -64.005; -139.997;    0.000;75.99201
 833.06;  -91.005;  -59.997;    0.000;-31.00788
 833.63;  -55.005;  -56.997;    0.000; 1.99223
 834.19;  -51.005;  -79.997;    0.000;28.99234
 834.76;  -36.005;  -83.997;    0.000;47.99245
 835.33; -115.005;  -80.997;    0.000;-34.00745
 835.90; -109.005;  -36.997;    0.000;-72.00734
 836.46;  -93.005;  -33.997;    0.000;-59.00723
 837.03;  -85.005; -100.998;    0.000;15.99288
 837.60;  -85.005; -100.998;    0.000;15.99299
 838.17;   56.996;   69.002;    0.000;-12.00690
 838.73;    1.996;  -57.998;    0.000;59.99321
 839.30;   -0.004;  -73.998;    0.000;73.99332
 839.87;  -42.004;   -5.998;    0.000;-36.00657
 840.43;  -30.004;  -58.998;    0.000;28.99354
 841.00;  -51.004;    7.002;    0.000;-58.00635
 841.57;  -58.004;  -31.998;    0.000;-26.00624
 842.14; -131.004;  -79.998;    0.000;-51.00613
 842.70;  -12.004;  -25.998;    0.000;13.99398
 843.27;   -4.004;  -54.998;    0.000;50.99409
 843.84;  -57.004;  -62.998;    0.000; 5.99420
 844.40;  -58.004; -102.998;    0.000;44.99431
 844.97;  -63.004; -114.998;    0.000;51.99442
 845.54;  -31.004;  -87.998;    0.000;56.99453
 846.10;  -45.003;  -43.998;    0.000;-1.00536
 846.67;  -76.003;  -90.998;    0.000;14.99474
 847.24; -108.003; -147.998;    0.000;39.99485
 847.80;  -31.003;  -88.998;    0.000;57.99496
 848.37;  -37.003;  -84.998;    0.000;47.99507
 848.94;   53.997;   19.002;    0.000;34.99518
 849.50;  134.997;   90.002;    0.000;44.99529
 850.07;  -39.003;  -20.998;    0.000;-18.00460
 850.63;   34.997;  -12.998;    0.000;47.99551
 851.20; -124.003;  -73.998;    0.000;-50.00438
 851.77;  -86.003; -128.999;    0.000;42.99573
 852.33;  101.997;   -7.999;    0.000;109.99584
 852.90; -127.003; -112.999;    0.000;-14.00405
 853.47;  103.997;   84.001;    0.000;19.99606
 854.03;  -67.002; -105.999;    0.000;38.99617
 854.60;   29.998;   38.001;    0.000;-8.00372
 855.16;   19.998;   19.001;    0.000; 0.99639
 855.73;  -21.002;  -27.999;    0.000; 6.99650
 856.30;   94.998;   17.001;    0.000;77.99661
 856.86;  -81.002; -121.999;    0.000;40.99672
 857.43;   71.998;  -13.999;    0.000;85.99682
 857.99;  -69.002;  -61.999;    0.000;-7.00307
 858.56;  -92.002; -168.999;    0.000;76.99704
 859.12;  -48.002;  -20.999;    0.000;-27.00285
 859.69; -112.002;  -47.999;    0.000;-64.00274
 860.26; -129.002; -121.999;    0.000;-7.00263
 860.82;  -90.002; -127.999;    0.000;37.99748
 861.39;  -13.002;   -1.999;    0.000;-11.00241
 861.95;  -57.001;  -68.999;    0.000;11.99770
 862.52;  -17.001;  -12.999;    0.000;-4.00219
 863.08;  -96.001;  -85.999;    0.000;-10.00208
 863.65;  -26.001;  -30.999;    0.000; 4.99803
 864.21;    1.999;  -81.999;    0.000;83.99814
 864.78;   11.999;   -3.999;    0.000;15.99825
 865.34;  147.999;  149.001;    0.000;-1.00164
 865.91;  -69.001;  -39.999;    0.000;-29.00153
 866.47;  -86.001; -102.000;    0.000;15.99858
 867.04;  -50.001;   -6.000;    0.000;-44.00131
 867.61; -111.001; -129.000;    0.000;17.99880
 868.17; -101.001;  -69.000;    0.000;-32.00109
 868.74;  -76.001;  -97.000;    0.000;20.99901
 869.30;  -86.001;  -58.000;    0.000;-28.00088
 869.86;  -94.000;    2.000;    0.000;-96.00077
 870.43; -131.000; -104.000;    0.000;-27.00066
 870.99; -166.000;  -99.000;    0.000;-67.00055
 871.56;  -35.000;   12.000;    0.000;-47.00044
 872.12;  -66.000; -138.000;    0.000;71.99967
 872.69; -126.000;  -78.000;    0.000;-48.00022
 873.25;  -61.000;  -15.000;    0.000;-46.00011
 873.82;  -66.000; -125.000;    0.000;59.00000
 874.38;  -15.000;   17.000;    0.000;-32.00000
 874.95;  -64.000;  -22.000;    0.000;-42.00000
 875.51;  -18.000;  -84.000;    0.000;66.00000
 876.08;  -88.000;  -71.000;    0.000;-17.00000
 876.64;  -52.000;  -85.000;    0.000;33.00000
 877.20;  -39.000; -101.000;    0.000;62.00000
 877.77;  -41.000;  -58.000;    0.000;17.00000
 878.33; -132.000; -101.000;    0.000;-31.00000
 878.90;  -37.000;  -54.000;    0.000;17.00000
 879.46;    7.000;  -20.000;    0.000;27.00000
 880.03;   55.000;    7.000;    0.000;48.00000
 880.59; -108.000;  -60.000;    0.000;-48.00000
 881.15;   47.000;   13.000;    0.000;34.00000
 881.72;  -34.000;  -86.000;    0.000;52.00000
 882.28;  -36.000;  -25.000;    0.000;-11.00000
 882.85;  -24.000;  -20.000;    0.000;-4.00000
 883.41;  -39.000;  -49.000;    0.000;10.00000
 883.97;  330.000;  307.000;    0.000;23.00000
 884.54;  -42.000;  -26.000;    0.000;-16.00000
 885.10; -155.000; -156.000;    0.000; 1.00000
 885.66;   35.000;  -35.000;    0.000;70.00000
 886.23;  -67.000;  -72.000;    0.000; 5.00000
 886.79;  -30.000;  -17.000;    0.000;-13.00000
 887.36;  -22.000; -116.000;    0.000;94.00000
 887.92;  -79.000;  -95.000;    0.000;16.00000
 888.48; -132.000; -109.000;    0.000;-23.00000
 889.05;  -91.000; -147.000;    0.000;56.00000
 889.61;  -98.000;   -2.000;    0.000;-96.00000
 890.17; -102.000;  -75.000;    0.000;-27.00000
 890.74;  -87.000;  -25.000;    0.000;-62.00000
 891.30;  -13.000; -101.000;    0.000;88.00000
 891.86;  -75.000; -109.000;    0.000;34.00000
 892.43; -122.000; -106.000;    0.000;-16.00000
 892.99;  -86.000;  -45.000;    0.000;-41.00000
 893.55;  -87.000; -123.000;    0.000;36.00000
 894.11;  -64.000;  -90.000;    0.000;26.00000
 894.68;  -11.000;  -33.000;    0.000;22.00000
 895.24;   30.000;   54.000;    0.000;-24.00000
 895.80;  -66.000;  -95.000;    0.000;29.00000
 896.37;  -81.000;  -85.000;    0.000; 4.00000
 896.93;  -77.000;  -50.000;    0.000;-27.00000
 897.49;  -75.000;  -56.000;    0.000;-19.00000
 898.05;   32.000;  -80.000;    0.000;112.00000
 898.62;   78.000;   95.000;    0.000;-17.00000
 899.18; -110.000;  -65.000;    0.000;-45.00000
 899.74;  160.000;  122.000;    0.000;38.00000
 900.31;  -71.000;  -91.000;    0.000;20.00000
 900.87; -113.000; -173.000;    0.000;60.00000
 901.43; -110.000; -135.000;    0.000;25.00000
 901.99;  -66.000;  -40.000;    0.000;-26.00000
 902.56;  -41.000;  -20.000;    0.000;-21.00000
 903.12;   77.000;  161.000;    0.000;-84.00000
 903.68;  -44.000;  -67.000;    0.000;23.00000
 904.24;  -26.000;  -75.000;    0.000;49.00000
 904.80;  -54.000;  -53.000;    0.000;-1.00000
 905.37;  -96.000; -129.000;    0.000;33.00000
 905.93;   13.000;    8.000;    0.000; 5.00000
 906.49;   11.000;  -59.000;    0.000;70.00000
 907.05; -106.000;  -94.000;    0.000;-12.00000
 907.61;  -90.000;  -92.000;    0.000; 2.00000
 908.18;  107.000;   15.000;    0.000;92.00000
 908.74;  -25.000;  -85.000;    0.000;60.00000
 909.30;  -80.000; -104.000;    0.000;24.00000
 909.86;  -62.000;  -74.000;    0.000;12.00000
 910.42;  -14.000;  -71.000;    0.000;57.00000
 910.99;   36.000;   16.000;    0.000;20.00000
 911.55;  -50.000;  -53.000;    0.000; 3.00000
 912.11;  -59.000;   -5.000;    0.000;-54.00000
 912.67;   -6.000;  -44.000;    0.000;38.00000
 913.23; -148.000;  -77.000;    0.000;-71.00000
 913.79; -105.000; -129.000;    0.000;24.00000
 914.36;    6.000;  -14.000;    0.000;20.00000
 914.92;  -11.000;  -11.000;    0.000; 0.00000
 915.48;  -74.000;  -57.000;    0.000;-17.00000
 916.04;   43.000;   25.000;    0.000;18.00000
 916.60;  -56.000;  -64.000;    0.000; 8.00000
 917.16; -118.000; -104.000;    0.000;-14.00000
 917.72; -147.000; -107.000;    0.000;-40.00000
 918.28;  -70.000; -105.000;    0.000;35.00000
 918.85;   16.000;  -19.000;    0.000;35.00000
 919.41;  -61.000;  -21.000;    0.000;-40.00000
 919.97; -106.000; -119.000;    0.000;13.00000
 920.53;  -75.000;  -92.000;    0.000;17.00000
 921.09;   40.000;   -4.000;    0.000;44.00000
 921.65; -113.000;  -72.000;    0.000;-41.00000
 922.21; -136.000;  -98.000;    0.000;-38.00000
 922.77;  -84.000; -100.000;    0.000;16.00000
 923.33;  -79.000;  -99.000;    0.000;20.00000
 923.89;  -55.000;  -59.000;    0.000; 4.00000
 924.45; -150.000; -135.000;    0.000;-15.00000
 925.01;  -45.000;  -40.000;    0.000;-5.00000
 925.58;  -69.000; -125.000;    0.000;56.00000
 926.14;  -57.000;  -90.000;    0.000;33.00000
 926.70; -103.000; -129.000;    0.000;26.00000
 927.26;   -4.000;   28.000;    0.000;-32.00000
 927.82;  -92.000;  -73.000;    0.000;-19.00000
 928.38;  -76.000; -101.000;    0.000;25.00000
 928.94; -136.000; -122.000;    0.000;-14.00000
 929.50;  -35.000;  -91.000;    0.000;56.00000
 930.06;  -73.000; -137.000;    0.000;64.00000
 930.62; -133.000; -153.000;    0.000;20.00000
 931.18;  -13.000;   -4.000;    0.000;-9.00000
 931.74; -133.000; -100.000;    0.000;-33.00000
 932.30;  -35.000;  -11.000;    0.000;-24.00000
 932.86;  -84.000;  -93.000;    0.000; 9.00000
 933.42;  -82.000;  -52.000;    0.000;-30.00000
 933.98;  -20.000;  -25.000;    0.000; 5.00000
 934.54;  -52.000; -157.000;    0.000;105.00000
 935.10;  -23.000;  -64.000;    0.000;41.00000
 935.66;  -49.000; -112.000;    0.000;63.00000
 936.22;   44.000;  -69.000;    0.000;113.00000
 936.78;  -77.000; -116.000;    0.000;39.00000
 937.34;  -81.000;  -53.000;    0.000;-28.00000
 937.90;  -61.000;    9.000;    0.000;-70.00000
 938.46; -132.000; -171.000;    0.000;39.00000
 939.02;  -41.000;  -50.000;    0.000; 9.00000
 939.58;  -94.000; -139.000;    0.000;45.00000
 940.14;  -90.000;  -36.000;    0.000;-54.00000
 940.70;  128.000;  118.000;    0.000;10.00000
 941.25; -107.000;  -73.000;    0.000;-34.00000
 941.81;  -92.000;  -60.000;    0.000;-32.00000
 942.37;  -10.000;   -5.000;    0.000;-5.00000
 942.93; -122.000; -123.000;    0.000; 1.00000
 943.49;  -77.000;  -82.000;    0.000; 5.00000
 944.05; -119.000; -123.000;    0.000; 4.00000
 944.61;  -41.000;   -3.000;    0.000;-38.00000
 945.17;  -10.000;  -97.000;    0.000;87.00000
 945.73; -160.000; -135.000;    0.000;-25.00000
 946.29;  -68.000; -128.000;    0.000;60.00000
 946.85;  -75.000; -145.000;    0.000;70.00000
 947.40; -114.000; -172.000;    0.000;58.00000
 947.96;  -86.000;  -80.000;    0.000;-6.00000
 948.52;  -71.000; -110.000;    0.000;39.00000
 949.08;  -17.000;  -75.000;    0.000;58.00000
 949.64;   21.000;   67.000;    0.000;-46.00000
 950.20;  -22.000;  -71.000;    0.000;49.00000
 950.76;  -26.000;  -27.000;    0.000; 1.00000
 951.32;  -75.000; -106.000;    0.000;31.00000
 951.87; -132.000; -102.000;    0.000;-30.00000
 952.43;  -25.000;   14.000;    0.000;-39.00000
 952.99;  -26.000;   48.000;    0.000;-74.00000
 953.55; -118.000;  -47.000;    0.000;-71.00000
 954.11;  -77.000; -152.000;    0.000;75.00000
 954.67;  -53.000;  -64.000;    0.000;11.00000
 955.22;  -46.000;  -88.000;    0.000;42.00000
 955.78;   98.000;   35.000;    0.000;63.00000
 956.34;  -18.000;  -44.000;    0.000;26.00000
 956.90;  -96.000; -137.000;    0.000;41.00000
 957.46;  -88.000; -119.000;    0.000;31.00000
 958.01;   32.000;    7.000;    0.000;25.00000
 958.57;  -46.000;  -53.000;    0.000; 7.00000
 959.13;    6.000;   11.000;    0.000;-5.00000
 959.69;  -77.000;  -49.000;    0.000;-28.00000
 960.25;  -13.000;  -43.000;    0.000;30.00000
 960.80;  -39.000;    3.000;    0.000;-42.00000
 961.36;  -60.000;  -84.000;    0.000;24.00000
 961.92;  -34.000; -109.000;    0.000;75.00000
 962.48;  -94.000; -138.000;    0.000;44.00000
 963.03;  -64.000;  -26.000;    0.000;-38.00000
 963.59; -107.000;  -50.000;    0.000;-57.00000
 964.15;  -25.000;  -55.000;    0.000;30.00000
 964.71;  -28.000;  -32.000;    0.000; 4.00000
 965.26;  -58.000;  -86.000;    0.000;28.00000
 965.82;   27.000;  -42.000;    0.000;69.00000
 966.38; -115.000; -114.000;    0.000;-1.00000
 966.94;  -80.000; -115.000;    0.000;35.00000
 967.49; -107.000; -141.000;    0.000;34.00000
 968.05; -116.000;  -70.000;    0.000;-46.00000
 968.61;   68.000;   76.000;    0.000;-8.00000
 969.17;  -69.000;  -66.000;    0.000;-3.00000
 969.72; -109.000; -112.000;    0.000; 3.00000
 970.28;   39.000;   70.000;    0.000;-31.00000
 970.84; -149.000;  -50.000;    0.000;-99.00000
 971.39;  -37.000;  -71.000;    0.000;34.00000
 971.95;  -82.000; -162.000;    0.000;80.00000
 972.51;  -40.000;  -83.000;    0.000;43.00000
 973.06;   30.000;   -2.000;    0.000;32.00000
 973.62;   14.000;  -48.000;    0.000;62.00000
 974.18;  -28.000;  -84.000;    0.000;56.00000
 974.73;  -94.000; -106.000;    0.000;12.00000
 975.29;   41.000;   90.000;    0.000;-49.00000
 975.85;  -50.000;  -54.000;    0.000; 4.00000
 976.40;   24.000;  -41.000;    0.000;65.00000
 976.96; -111.000;  -97.000;    0.000;-14.00000
 977.52;   14.000;    8.000;    0.000; 6.00000
 978.07;  -55.000;  -76.000;    0.000;21.00000
 978.63;  -28.000;  -54.000;    0.000;26.00000
 979.19;  -37.000;  -10.000;    0.000;-27.00000
 979.74;   83.000;  -11.000;    0.000;94.00000
 980.30;  -88.000; -119.000;    0.000;31.00000
 980.85;  -31.000;   27.000;    0.000;-58.00000
 981.41; -113.000;  -86.000;    0.000;-27.00000
 981.97;  -94.000;  -66.000;    0.000;-28.00000
 982.52;  -74.000;  -81.000;    0.000; 7.00000
 983.08;  -35.000;  -32.000;    0.000;-3.00000
 983.63;  -59.000;  -36.000;    0.000;-23.00000
 984.19;  -20.000;   -4.000;    0.000;-16.00000
 984.75; -134.000;  -74.000;    0.000;-60.00000
 985.30;    8.000;  -63.000;    0.000;71.00000
 985.86;  -75.000;  -77.000;    0.000; 2.00000
 986.41;  -15.000;  -89.000;    0.000;74.00000
 986.97;  -55.000;  -31.000;    0.000;-24.00000
 987.52; -118.000; -122.000;    0.000; 4.00000
 988.08;  -97.000; -109.000;    0.000;12.00000
 988.64;  -53.000;  -91.000;    0.000;38.00000
 989.19; -111.000; -140.000;    0.000;29.00000
 989.75;   61.000;   66.000;    0.000;-5.00000
 990.30; -152.000;  -96.000;    0.000;-56.00000
 990.86;  -56.000; -113.000;    0.000;57.00000
 991.41;   12.000;  -29.000;    0.000;41.00000
 991.97;  -57.000;  -35.000;    0.000;-22.00000
 992.52;  -51.000; -102.000;    0.000;51.00000
 993.08;  -61.000; -167.000;    0.000;106.00000
 993.63; -107.000;   24.000;    0.000;-131.00000
 994.19;  -53.000;  -51.000;    0.000;-2.00000
 994.74; -134.000; -105.000;    0.000;-29.00000
 995.30;  -57.000; -126.000;    0.000;69.00000
 995.85; -118.000; -153.000;    0.000;35.00000
 996.41;  -33.000;  -27.000;    0.000;-6.00000
 996.96;  -18.000;  -97.000;    0.000;79.00000
 997.52;   76.000;   25.000;    0.000;51.00000
 998.07;  -20.000;  -18.000;    0.000;-2.00000
 998.63;  -42.000; -123.000;    0.000;81.00000
 999.18;  -24.000;    3.000;    0.000;-27.00000
 999.74;   14.000;  -29.000;    0.000;43.00000
1000.29;  -69.000;  -61.000;    0.000;-8.00000
1000.85;  -41.000;  -58.000;    0.000;17.00000
1001.40;  -18.000;  -61.000;    0.000;43.00000
1001.96; -125.000; -141.000;    0.000;16.00000
1002.51;  -54.000; -106.000;    0.000;52.00000
1003.06; -116.000;  -85.000;    0.000;-31.00000
1003.62;   56.000;   28.000;    0.000;28.00000
1004.17; -102.000; -111.000;    0.000; 9.00000
1004.73; -128.000; -142.000;    0.000;14.00000
1005.28;  226.000;   96.000;    0.000;130.00000
1005.83; -141.000; -114.000;    0.000;-27.00000
1006.39; -109.000; -181.000;    0.000;72.00000
1006.94;  -80.000; -107.000;    0.000;27.00000
1007.50;   -9.000;  -50.000;    0.000;41.00000
1008.05; -140.000; -135.000;    0.000;-5.00000
1008.60;  -72.000; -132.000;    0.000;60.00000
1009.16;  -36.000; -120.000;    0.000;84.00000
1009.71;  -37.000; -104.000;    0.000;67.00000
1010.27;  -98.000; -116.000;    0.000;18.00000
1010.82; -143.000; -188.000;    0.000;45.00000
1011.37;   33.000;   25.000;    0.000; 8.00000
1011.93;   47.000;    5.000;    0.000;42.00000
1012.48;  -12.000;  -15.000;    0.000; 3.00000
1013.03;  -38.000; -101.000;    0.000;63.00000
1013.59;   -3.000;  -61.000;    0.000;58.00000
1014.14;  -71.000;  -98.000;    0.000;27.00000
1014.69;  -92.000;  -95.000;    0.000; 3.00000
1015.25;  183.000;  110.000;    0.000;73.00000
1015.80;   42.000;    8.000;    0.000;34.00000
1016.35;  -59.000;  -73.000;    0.000;14.00000
1016.91;  -83.000;  -58.000;    0.000;-25.00000
1017.46; -137.000; -108.000;    0.000;-29.00000
1018.01;  -76.000;  -40.000;    0.000;-36.00000
1018.57; -102.000; -135.000;    0.000;33.00000
1019.12;  -85.000;  -80.000;    0.000;-5.00000
1019.67;  -31.000;  -28.000;    0.000;-3.00000
1020.23;  -10.000;   85.000;    0.000;-95.00000
1020.78; -139.000; -157.000;    0.000;18.00000
1021.33;  -70.000;  -49.000;    0.000;-21.00000
1021.88;   10.000;   19.000;    0.000;-9.00000
1022.44;   27.000;   41.000;    0.000;-14.00000
1022.99; -100.000;  -64.000;    0.000;-36.00000
1023.54; -177.000; -148.000;    0.000;-29.00000
1024.09;   20.000;   61.000;    0.000;-41.00000
1024.65;  -80.000;  -56.000;    0.000;-24.00000
1025.20;  -86.000; -136.000;    0.000;50.00000
1025.75;  -93.000; -127.000;    0.000;34.00000
1026.30;  -24.000;  -95.000;    0.000;71.00000
1026.86; -113.000;  -95.000;    0.000;-18.00000
1027.41;  -33.000;  -77.000;    0.000;44.00000
1027.96;  -90.000;  -73.000;    0.000;-17.00000
1028.51;   64.000;   16.000;    0.000;48.00000
1029.07;  -73.000; -159.000;    0.000;86.00000
1029.62;  -68.000; -108.000;    0.000;40.00000
1030.17;  -68.000;  -56.000;    0.000;-12.00000
1030.72;  -42.000;  -73.000;    0.000;31.00000
1031.27;  -79.000; -111.000;    0.000;32.00000
1031.83;  -44.000;  -72.000;    0.000;28.00000
1032.38;   65.000;   -1.000;    0.000;66.00000
1032.93;  -17.000;  -65.000;    0.000;48.00000
1033.48;  -38.000;   -2.000;    0.000;-36.00000
1034.03;  -19.000;   -8.000;    0.000;-11.00000
1034.58;  -37.000;  -79.000;    0.000;42.00000
1035.14; -125.000;  -51.000;    0.000;-74.00000
1035.69; -144.000; -104.000;    0.000;-40.00000
1036.24;  -94.000;  -82.000;    0.000;-12.00000
1036.79;  -91.000;  -71.000;    0.000;-20.00000
1037.34; -104.000; -120.000;    0.000;16.00000
1037.89;  -38.000;  -65.000;    0.000;27.00000
1038.45; -127.000;  -91.000;    0.000;-36.00000
1039.00;  -64.000;  -60.000;    0.000;-4.00000
1039.55;  -67.000; -100.000;    0.000;33.00000
1040.10;   -1.000;   33.000;    0.000;-34.00000
1040.65; -110.000; -145.000;    0.000;35.00000
1041.20;  -31.000;  -47.000;    0.000;16.00000
1041.75;  -25.000;  -79.000;    0.000;54.00000
1042.30;  -83.000;  -95.000;    0.000;12.00000
1042.85;  -76.000;  -44.000;    0.000;-32.00000
1043.41;  -32.000;  -52.000;    0.000;20.00000
1043.96;  -99.000;  -96.000;    0.000;-3.00000
1044.51; -114.000;  -85.000;    0.000;-29.00000
1045.06;   27.000;   24.000;    0.000; 3.00000
1045.61;  -73.000;  -85.000;    0.000;12.00000
1046.16;   49.000;  -43.000;    0.000;92.00000
1046.71; -103.000;  -83.000;    0.000;-20.00000
1047.26;  -64.000;  -93.000;    0.000;29.00000
1047.81;  -88.000; -119.000;    0.000;31.00000
1048.36; -108.000;  -99.000;    0.000;-9.00000
1048.91; 1143.000; 1011.000;    0.000;132.00000
1049.46;  189.000;   68.000;    0.000;121.00000
1050.01;  -67.000;  -40.000;    0.000;-27.00000
1050.56;  -63.000;  -78.000;    0.000;15.00000
1051.11;    1.000;  -43.000;    0.000;44.00000
1051.66;  -90.000; -127.000;    0.000;37.00000
1052.21;  -37.000;  -89.000;    0.000;52.00000
1052.76;    3.000;   -9.000;    0.000;12.00000
1053.31;  -87.000;  -36.000;    0.000;-51.00000
1053.86;  -51.000; -134.000;    0.000;83.00000
1054.41;  -86.000;  -55.000;    0.000;-31.00000
1054.96;  -72.000;  -45.000;    0.000;-27.00000
1055.51;  154.000;  202.000;    0.000;-48.00000
1056.06; -131.000; -181.000;    0.000;50.00000
1056.61;    7.000;   62.000;    0.000;-55.00000
1057.16;   -6.000;  -52.000;    0.000;46.00000
1057.71;  -69.000;  -58.000;    0.000;-11.00000
1058.26; -102.000; -116.000;    0.000;14.00000
1058.81;   31.000;  -32.000;    0.000;63.00000
1059.36; -134.000; -182.000;    0.000;48.00000
1059.91;  -64.000;  -53.000;    0.000;-11.00000
1060.46;   -4.000;  -58.000;    0.000;54.00000
1061.01; -122.000;  -77.000;    0.000;-45.00000
1061.56; -100.000; -153.000;    0.000;53.00000
1062.11;   36.000;   10.000;    0.000;26.00000
1062.66;  -73.000; -109.000;    0.000;36.00000
1063.21;  -83.000; -112.000;    0.000;29.00000
1063.76;  -82.000;  -75.000;    0.000;-7.00000
1064.31;  -61.000;  -84.000;    0.000;23.00000
1064.86;  -73.000; -140.000;    0.000;67.00000
1065.40;   78.000;   18.000;    0.000;60.00000
1065.95;  -13.000;   19.000;    0.000;-32.00000
1066.50;  -64.000; -139.000;    0.000;75.00000
1067.05;  -52.000; -153.000;    0.000;101.00000
1067.60;   46.000;   41.000;    0.000; 5.00000
1068.15;  -54.000;  -40.000;    0.000;-14.00000
1068.70; -106.000; -110.000;    0.000; 4.00000
1069.25;  -67.000;  -74.000;    0.000; 7.00000
1069.79;  -77.000;  -62.000;    0.000;-15.00000
1070.34;  -80.000;  -94.000;    0.000;14.00000
1070.89;   12.000;   41.000;    0.000;-29.00000
1071.44;  -40.000;  -64.000;    0.000;24.00000
1071.99;  135.000;  102.000;    0.000;33.00000
1072.54; -106.000;  -94.000;    0.000;-12.00000
1073.09;  -51.000;  -60.000;    0.000; 9.00000
1073.63;  -51.000;   -2.000;    0.000;-49.00000
1074.18;  -15.000;  -39.000;    0.000;24.00000
1074.73; -108.000; -122.000;    0.000;14.00000
1075.28;   32.000;   32.000;    0.000; 0.00000
1075.83;  -61.000;  -53.000;    0.000;-8.00000
1076.38; -155.000; -132.000;    0.000;-23.00000
1076.92; -129.000; -100.000;    0.000;-29.00000
1077.47;  -31.000;  -28.000;    0.000;-3.00000
1078.02;   33.000;   11.000;    0.000;22.00000
1078.57; -150.000; -148.000;    0.000;-2.00000
1079.11;   -1.000;  -83.000;    0.000;82.00000
1079.66;  -96.000;  -83.000;    0.000;-13.00000
1080.21;  -61.000;  -85.000;    0.000;24.00000
1080.76;   -5.000;    2.000;    0.000;-7.00000
1081.31; -102.000; -111.000;    0.000; 9.00000
1081.85; -116.000; -113.000;    0.000;-3.00000
1082.40;   31.000;   12.000;    0.000;19.00000
1082.95;  -72.000; -114.000;    0.000;42.00000
1083.50;   34.000;   -6.000;    0.000;40.00000
1084.04; -102.000;  -75.000;    0.000;-27.00000
1084.59;  -53.000;  -71.000;    0.000;18.00000
1085.14; -112.000;  -79.000;    0.000;-33.00000
1085.69;  -49.000; -128.000;    0.000;79.00000
1086.23; -106.000;  -70.000;    0.000;-36.00000
1086.78;    0.000;  -26.000;    0.000;26.00000
1087.33;  -52.000;   11.000;    0.000;-63.00000
1087.87;  -73.000;  -76.000;    0.000; 3.00000
1088.42;  -24.000;  -29.000;    0.000; 5.00000
1088.97;  -90.000;  -80.000;    0.000;-10.00000
1089.52;  -57.000;   -4.000;    0.000;-53.00000
1090.06;  -87.000; -121.000;    0.000;34.00000
1090.61;  -88.000;  -83.000;    0.000;-5.00000
1091.16;  -69.000;  -47.000;    0.000;-22.00000
1091.70; -172.000;  -67.000;    0.000;-105.00000
1092.25;  -80.000; -129.000;    0.000;49.00000
1092.80; -111.000;  -44.000;    0.000;-67.00000
1093.34; -125.000;  -86.000;    0.000;-39.00000
1093.89;  -70.000;  -61.000;    0.000;-9.00000
1094.44;  -99.000;  -22.000;    0.000;-77.00000
1094.98;   51.000;    8.000;    0.000;43.00000
1095.53; -105.000;  -45.000;    0.000;-60.00000
1096.07;  -48.000;  -48.000;    0.000; 0.00000
1096.62;  -50.000; -105.000;    0.000;55.00000
1097.17;   15.000;  -10.000;    0.000;25.00000
1097.71;  -92.000;   -9.000;    0.000;-83.00000
1098.26;  -56.000; -132.000;    0.000;76.00000
1098.81;  -47.000;  -47.000;    0.000; 0.00000
1099.35;  -86.000; -114.000;    0.000;28.00000
1099.90;  -80.000;  -78.000;    0.000;-2.00000
1100.44; -151.000;  -88.000;    0.000;-63.00000

