730_38mA_3.49V_1701237U1
Integration time [ms]: 100.000
Averaging Nr. [scans]: 1
Smoothing Nr. [pixels]: 0
Data measured with spectrometer [name]: 1701237U1
Wave   ;Sample   ;Dark     ;Reference;Scope Corrected for Dark
[nm]   ;[counts] ;[counts] ;[counts] ;[counts] 

 173.88;  -21.828;  -14.009;    0.000;-7.81896
 174.48;   10.461;  -57.006;    0.000;67.46681
 175.09;   -6.200;    4.998;    0.000;-11.19755
 175.69;   -8.524;    8.994;    0.000;-17.51784
 176.30;   73.141;   65.991;    0.000; 7.15035
 176.90;  -15.297;  -12.003;    0.000;-3.29344
 177.51;  -23.180;  -12.002;    0.000;-11.17837
 178.11;   45.389;   20.993;    0.000;24.39585
 178.72;  -27.339;  -19.004;    0.000;-8.33564
 179.32;    9.292;  -80.008;    0.000;89.29995
 179.93;  -32.675;  -64.007;    0.000;31.33256
 180.54;   -0.192;   40.998;    0.000;-41.18988
 181.14;   -2.840;  -11.009;    0.000; 8.16953
 181.75;   45.760;   44.997;    0.000; 0.76218
 182.35;   15.825;  -54.002;    0.000;69.82739
 182.96;   60.632;   76.996;    0.000;-16.36441
 183.56;   30.102;   16.990;    0.000;13.11199
 184.17;  -12.492;  148.995;    0.000;-161.48716
 184.77;    5.816;  -17.002;    0.000;22.81780
 185.38;   34.449;    7.994;    0.000;26.45530
 185.98;   19.422;   50.994;    0.000;-31.57155
 186.59;   58.667;    8.996;    0.000;49.67011
 187.19;   -5.461;   10.995;    0.000;-16.45647
 187.80;   59.215;  -30.008;    0.000;89.22323
 188.40;  -52.187;   21.987;    0.000;-74.17378
 189.01;   16.424;  -34.006;    0.000;50.43037
 189.61;   -5.372;  -27.004;    0.000;21.63176
 190.21;   -3.791;  -46.009;    0.000;42.21748
 190.82;   46.298;   -3.008;    0.000;49.30571
 191.42;   57.104;  -46.010;    0.000;103.11391
 192.03;   21.056;  -61.010;    0.000;82.06596
 192.63;   43.937;   -7.011;    0.000;50.94897
 193.24;   -4.264;   36.997;    0.000;-41.26084
 193.84;   45.724;  -37.014;    0.000;82.73799
 194.45;    8.924;  -17.012;    0.000;25.93554
 195.05;   31.294;  -76.008;    0.000;107.30187
 195.66;  -26.993;   -1.011;    0.000;-25.98199
 196.26;   -0.317;   10.986;    0.000;-11.30228
 196.87;  -46.159;   -4.013;    0.000;-42.14693
 197.47;  -14.942;   21.990;    0.000;-36.93212
 198.07;   31.720;  -50.014;    0.000;81.73416
 198.68;   24.645;  -94.015;    0.000;118.65936
 199.28;    5.207;    9.991;    0.000;-4.78444
 199.89;   21.315;  -19.018;    0.000;40.33331
 200.49;   28.711;   20.986;    0.000; 7.72457
 201.10;   52.994;   17.989;    0.000;35.00459
 201.70;  -21.386;   26.985;    0.000;-48.37133
 202.31;   31.393;  -70.007;    0.000;101.39968
 202.91;   20.380;   24.993;    0.000;-4.61374
 203.51;   36.972;  -47.011;    0.000;83.98349
 204.12;  -20.143;  -31.002;    0.000;10.85807
 204.72;   62.632;   39.996;    0.000;22.63559
 205.33;   32.391;  -49.007;    0.000;81.39777
 205.93;   27.248;  -21.008;    0.000;48.25584
 206.53;  -16.840;  -39.009;    0.000;22.16953
 207.14;   42.191; -109.009;    0.000;151.20022
 207.74;  -27.768;   45.992;    0.000;-73.75950
 208.35;    9.050;  -50.010;    0.000;59.06021
 208.95;   10.203;   -0.009;    0.000;10.21173
 209.55;   20.190;  206.991;    0.000;-186.80170
 210.16;   24.052;  -10.010;    0.000;34.06213
 210.76;   61.104;  -30.010;    0.000;91.11391
 211.37;   37.143;  -79.009;    0.000;116.15227
 211.97;   18.444;  -25.006;    0.000;43.44955
 212.57;   52.747;  -30.014;    0.000;82.76101
 213.18;   26.994;  -58.011;    0.000;85.00459
 213.78;   12.870; -103.012;    0.000;115.88184
 214.38;   25.213;  -23.009;    0.000;48.22132
 214.99;   43.994;   13.989;    0.000;30.00459
 215.59;    2.817;  -36.013;    0.000;38.83006
 216.20;  -80.299;  -27.014;    0.000;-53.28502
 216.80;   -1.227;  -75.013;    0.000;73.78594
 217.40;   21.050;  -15.010;    0.000;36.06021
 218.01;   18.620;  -26.015;    0.000;44.63443
 218.61;  -36.111;  -50.012;    0.000;13.90102
 219.21;   25.197;    0.991;    0.000;24.20597
 219.82;   12.155;  186.991;    0.000;-174.83622
 220.42;  -12.882;  -65.010;    0.000;52.12734
 221.02;   29.373;  -59.018;    0.000;88.39085
 221.63;  -49.770; -120.019;    0.000;70.24892
 222.23;  -47.185;  -73.013;    0.000;25.82814
 222.83;   41.112;  -20.010;    0.000;61.12158
 223.44;   28.391;  -50.007;    0.000;78.39777
 224.04;   69.210;  -21.019;    0.000;90.22974
 224.64;  -28.332;  -94.014;    0.000;65.68237
 225.25;   35.131;  -24.009;    0.000;59.14076
 225.85;   21.312;  -30.007;    0.000;51.31913
 226.45;   38.811;   -8.013;    0.000;46.82430
 227.06;   22.005;   77.989;    0.000;-55.98390
 227.66;    1.170;   97.991;    0.000;-96.82088
 228.26;  -10.088;  -10.012;    0.000;-0.07597
 228.87;  -25.107;  -14.012;    0.000;-11.09514
 229.47;   -7.940;   -0.010;    0.000;-7.93020
 230.07;   21.829;  -26.013;    0.000;47.84156
 230.68;    3.463;    2.994;    0.000; 0.46873
 231.28;  -34.253;   -4.014;    0.000;-30.23899
 231.88;   33.870;  186.988;    0.000;-153.11816
 232.48;  -10.628;  -37.007;    0.000;26.37859
 233.09;   -9.723;  -13.008;    0.000; 3.28461
 233.69;   -9.911;  -32.010;    0.000;22.09857
 234.29;   -5.888;   -0.010;    0.000;-5.87842
 234.90;  -54.227;   15.987;    0.000;-70.21406
 235.50;   10.175;  -52.020;    0.000;62.19522
 236.10;   30.141;  -34.009;    0.000;64.15035
 236.70;    1.833;  -28.013;    0.000;29.84540
 237.31;   17.716; -117.014;    0.000;134.73032
 237.91;  -44.237;   -0.013;    0.000;-44.22365
 238.51;   30.267;  -61.008;    0.000;91.27502
 239.11;  -25.068;   40.999;    0.000;-66.06713
 239.72;  -18.400;  -33.015;    0.000;14.61525
 240.32;   28.562;   -4.005;    0.000;32.56655
 240.92;    0.827;   52.987;    0.000;-52.16035
 241.53;   -0.394;   35.985;    0.000;-36.37900
 242.13;  -48.035;   48.989;    0.000;-97.02418
 242.73;   20.155;   39.991;    0.000;-19.83622
 243.33;   21.719;  -31.003;    0.000;52.72190
 243.93;  -23.243;    2.987;    0.000;-26.22940
 244.54;  -28.940;  -15.010;    0.000;-13.93020
 245.14;    4.972;  -29.011;    0.000;33.98349
 245.74;   22.800;   58.987;    0.000;-36.18721
 246.34;   12.891;   16.988;    0.000;-4.09706
 246.95;   12.703;  -84.014;    0.000;96.71690
 247.55;  -14.119;  -41.012;    0.000;26.89335
 248.15;  -11.567;   -4.017;    0.000;-7.54970
 248.75;    0.197;   21.991;    0.000;-21.79403
 249.36;   16.447;  -53.017;    0.000;69.46373
 249.96;  -34.714;  -78.008;    0.000;43.29420
 250.56;   31.881;   13.988;    0.000;17.89335
 251.16;   -0.861;  -68.009;    0.000;67.14843
 251.76;   52.930;   37.988;    0.000;14.94130
 252.37;  -14.756;   41.992;    0.000;-56.74800
 252.97;   26.972;  -30.011;    0.000;56.98349
 253.57;  -12.940;   10.990;    0.000;-23.93020
 254.17;   49.736;   22.986;    0.000;26.74950
 254.77;   43.224;   -5.008;    0.000;48.23282
 255.38;   12.728;  -92.014;    0.000;104.74183
 255.98;  -15.341;    4.996;    0.000;-20.33756
 256.58;   28.228;   47.992;    0.000;-19.76334
 257.18;  -28.016;  -38.011;    0.000; 9.99500
 257.78;  -21.971;   23.989;    0.000;-45.96089
 258.38;   17.050;  -46.010;    0.000;63.06021
 258.99;   -8.644;  -29.007;    0.000;20.36324
 259.59;   19.135;  -44.009;    0.000;63.14460
 260.19;    0.839;  -56.013;    0.000;56.85115
 260.79;   11.870;   27.988;    0.000;-16.11816
 261.39;   12.732;  189.986;    0.000;-177.25433
 261.99;   -0.330;  -52.014;    0.000;51.68429
 262.60;   -6.256;    2.986;    0.000;-9.24283
 263.20;   -6.595;   -0.006;    0.000;-6.58881
 263.80;  -23.716;  -75.019;    0.000;51.30262
 264.40;  -13.094;  -33.012;    0.000;19.91828
 265.00;    1.046;   36.990;    0.000;-35.94363
 265.60;    0.143;  -50.009;    0.000;50.15227
 266.20;   29.275;  -13.008;    0.000;42.28269
 266.81;  -52.884; -101.010;    0.000;48.12542
 267.41;  -30.214;  -40.013;    0.000; 9.79937
 268.01;    1.308;   42.993;    0.000;-41.68471
 268.61;  -37.254;  -32.014;    0.000;-5.24091
 269.21;  -37.305;  -22.014;    0.000;-15.29077
 269.81;   -1.578;  -56.006;    0.000;54.42845
 270.41;   32.064;   75.990;    0.000;-43.92637
 271.01;   34.854;   25.988;    0.000; 8.86650
 271.62;  -51.646;    3.993;    0.000;-55.63867
 272.22;   82.255;  -44.008;    0.000;126.26351
 272.82;  -32.086;   37.988;    0.000;-70.07405
 273.42;  -19.053;   58.989;    0.000;-78.04144
 274.02;  -13.873;    2.991;    0.000;-16.86307
 274.62;   18.561;   -5.016;    0.000;23.57689
 275.22;   -7.717;  -86.008;    0.000;78.29036
 275.82;   38.765;  -14.013;    0.000;52.77827
 276.42;   16.794;  -52.013;    0.000;68.80704
 277.02;    8.296;  -32.008;    0.000;40.30379
 277.63;   27.858;  -20.012;    0.000;47.87033
 278.23;   -7.134;  -24.012;    0.000;16.87800
 278.83;  -32.272;   -5.014;    0.000;-27.25817
 279.43;   -9.229;   70.987;    0.000;-80.21597
 280.03;    3.622;  -34.004;    0.000;37.62600
 280.63;  -25.051;  -29.011;    0.000; 3.96048
 281.23;  -27.012;   55.989;    0.000;-83.00117
 281.83;  -11.413;  -44.015;    0.000;32.60182
 282.43;   39.941;  307.989;    0.000;-268.04720
 283.03;   -1.905;   67.990;    0.000;-69.89568
 283.63;   13.873;  -54.012;    0.000;67.88568
 284.23;    8.713;  -23.014;    0.000;31.72649
 284.83;  -29.311;  -30.014;    0.000; 0.70347
 285.43;   15.083;   16.990;    0.000;-1.90719
 286.03;   34.457;  -34.006;    0.000;68.46298
 286.63;   -8.132;   25.988;    0.000;-34.12008
 287.23;  -34.933;  -31.010;    0.000;-3.92253
 287.84;  -49.764;  -28.008;    0.000;-21.75567
 288.44;    8.155;    8.991;    0.000;-0.83622
 289.04;    0.366;  -70.007;    0.000;70.37283
 289.64;    7.164;  -41.009;    0.000;48.17337
 290.24;   32.102;  -53.021;    0.000;85.12234
 290.84;   34.758;  -68.003;    0.000;102.76026
 291.44;   21.405;  -35.006;    0.000;56.41119
 292.04;  -14.392;  -23.004;    0.000; 8.61258
 292.64;   30.226;    1.992;    0.000;28.23474
 293.24;  -32.572;  -28.006;    0.000;-4.56579
 293.84;   13.825;  -61.013;    0.000;74.83773
 294.44;  -17.123;   30.988;    0.000;-48.11049
 295.04;   35.221;  -69.008;    0.000;104.22899
 295.64;   26.540;  -21.005;    0.000;47.54545
 296.24;   18.521;  -43.005;    0.000;61.52627
 296.84;   -1.634;  -52.007;    0.000;50.37283
 297.44;   24.042;  -16.010;    0.000;40.05254
 298.04;  -27.233;  -52.003;    0.000;24.76985
 298.64;  -55.512;  -82.006;    0.000;26.49366
 299.24;   21.916;  -81.012;    0.000;102.92787
 299.84;   22.484;   72.994;    0.000;-50.51017
 300.44;   19.184;  -44.009;    0.000;63.19255
 301.04;   41.682;    2.997;    0.000;38.68546
 301.64;  -31.150;  -51.012;    0.000;19.86266
 302.24;   52.023;  -12.011;    0.000;64.03336
 302.83;   12.732;  -27.003;    0.000;39.73532
 303.43;   47.908;  -75.012;    0.000;122.92020
 304.03;   -5.363;  -32.015;    0.000;26.65169
 304.63;   31.294;  -47.008;    0.000;78.30187
 305.23;  -34.810;  -94.009;    0.000;59.19830
 305.83;   81.100;  -85.010;    0.000;166.11008
 306.43;   15.083;  -43.010;    0.000;58.09281
 307.03;   41.887;   80.988;    0.000;-39.10090
 307.63;  -31.890;    2.990;    0.000;-34.88034
 308.23;   12.936;   13.988;    0.000;-1.05295
 308.83;  -23.156;  -32.012;    0.000; 8.85691
 309.43;  -32.450;  -87.016;    0.000;54.56538
 310.03;   43.484;  -17.016;    0.000;60.50017
 310.63;  -57.289;    7.986;    0.000;-65.27543
 311.23;  -13.551;  -95.017;    0.000;81.46565
 311.83;  -80.933;   -5.010;    0.000;-75.92253
 312.43;   -0.640;  -51.007;    0.000;50.36708
 313.02;   10.794;   51.987;    0.000;-41.19296
 313.62;   -1.830; -116.009;    0.000;114.17912
 314.22;  -25.979;  -45.011;    0.000;19.03144
 314.82;  -54.237;   55.987;    0.000;-110.22365
 315.42;   73.505;   28.984;    0.000;44.52127
 316.02;   51.726;    5.986;    0.000;45.73991
 316.62;  -44.706;  -45.018;    0.000; 0.31221
 317.22;   -6.543;  -62.017;    0.000;55.47332
 317.82;  -30.396;  -57.015;    0.000;26.61908
 318.42;   16.162;  290.991;    0.000;-274.82855
 319.01;  -13.437;   33.984;    0.000;-47.42119
 319.61;  -39.551;   -4.017;    0.000;-35.53435
 320.21;   33.588;  -22.015;    0.000;55.60374
 320.81;  -32.989;   11.978;    0.000;-44.96781
 321.41;   15.100;   67.990;    0.000;-52.88992
 322.01;    1.746;  -67.014;    0.000;68.75909
 322.61;   40.195;   20.980;    0.000;19.21440
 323.21;   -0.505;   -1.016;    0.000; 0.51168
 323.80;   18.559; -111.016;    0.000;129.57497
 324.40;  -23.201;  -12.024;    0.000;-11.17686
 325.00;   49.129;  -57.020;    0.000;106.14919
 325.60;   32.170;   18.980;    0.000;13.18946
 326.20;  -31.656;  -50.018;    0.000;18.36208
 326.80;  -24.900;   18.979;    0.000;-43.87958
 327.40;  -21.298;    8.975;    0.000;-30.27276
 327.99;  -25.825;    1.969;    0.000;-27.79444
 328.59;    7.051;  -40.032;    0.000;47.08281
 329.19;   64.745;  476.965;    0.000;-412.22022
 329.79;   12.801;  -30.035;    0.000;42.83540
 330.39;  -33.385;   78.963;    0.000;-112.34873
 330.99;   28.791;  -52.035;    0.000;80.82581
 331.58;   -1.674;  -68.040;    0.000;66.36550
 332.18;   -7.105;  -67.044;    0.000;59.93972
 332.78;   10.775;   78.954;    0.000;-68.17919
 333.38;   99.292;   57.949;    0.000;41.34324
 333.98;   -5.413;  -76.048;    0.000;70.63477
 334.57;    7.366;    0.950;    0.000; 6.41612
 335.17;    5.626;  -59.047;    0.000;64.67312
 335.77;   -3.163;  -28.045;    0.000;24.88218
 336.37;   -1.605;  100.950;    0.000;-102.55511
 336.97;    5.204;  -13.041;    0.000;18.24467
 337.56;  -21.015;  -19.043;    0.000;-1.97206
 338.16;    8.167;   -1.041;    0.000; 9.20823
 338.76;  -19.060;   45.967;    0.000;-65.02651
 339.36;  -20.434;  -45.037;    0.000;24.60333
 339.96;   -3.261;  -64.035;    0.000;60.77402
 340.55;   -6.217;   40.965;    0.000;-47.18186
 341.15;  -34.273;  -42.035;    0.000; 7.76252
 341.75;   41.264;   79.960;    0.000;-38.69587
 342.35;  -24.763;  -60.041;    0.000;35.27728
 342.94;   10.290;   20.949;    0.000;-10.65868
 343.54;  -26.006;  -63.043;    0.000;37.03753
 344.14;   21.921;  -78.044;    0.000;99.96465
 344.74;  -60.401;  -44.048;    0.000;-16.35373
 345.33;   21.140;   68.958;    0.000;-47.81862
 345.93;   29.155;  -31.042;    0.000;60.19672
 346.53;   52.574;  -25.037;    0.000;77.61100
 347.13;  -15.606;  -11.039;    0.000;-4.56737
 347.72;  -47.147;  -39.045;    0.000;-8.10248
 348.32;    8.485;   12.962;    0.000;-4.47723
 348.92;   -3.744;  -67.040;    0.000;63.29646
 349.52;    9.138;  -16.042;    0.000;25.17946
 350.11;   17.080;   48.958;    0.000;-31.87808
 350.71;    8.427;  -17.039;    0.000;25.46523
 351.31;  -14.405;   -7.037;    0.000;-7.36790
 351.91;  -16.445;  -27.037;    0.000;10.59182
 352.50;   50.502;    4.962;    0.000;45.54003
 353.10;   26.405;   14.961;    0.000;11.44414
 353.70;   51.946;   57.967;    0.000;-6.02076
 354.29;   48.359;  432.961;    0.000;-384.60189
 354.89;  -17.105;    0.956;    0.000;-18.06028
 355.49;   20.845;  -27.034;    0.000;47.87951
 356.09;  -11.965;   13.957;    0.000;-25.92219
 356.68;  -34.475;  -57.038;    0.000;22.56305
 357.28;   38.787;  -49.046;    0.000;87.83231
 357.88;   -3.118;   16.955;    0.000;-20.07371
 358.47;  -22.697;  -93.040;    0.000;70.34249
 359.07;    9.529;   52.962;    0.000;-43.43312
 359.67;   -1.546;  -62.038;    0.000;60.49209
 360.26;  -16.599;  -24.039;    0.000; 7.44030
 360.86;   -9.893;  -61.042;    0.000;51.14877
 361.46;    6.861;   17.966;    0.000;-11.10515
 362.05;  -45.876;   46.958;    0.000;-92.83396
 362.65;   46.812;  -39.034;    0.000;85.84690
 363.25;   31.807; -113.035;    0.000;144.84115
 363.84;   18.849;  -70.034;    0.000;88.88335
 364.44;   14.599;   -8.037;    0.000;22.63593
 365.04;  -35.447;  -20.037;    0.000;-15.41010
 365.63;   32.652;  -71.036;    0.000;103.68772
 366.23;    9.869;  -30.034;    0.000;39.90253
 366.83;   54.657;  -20.036;    0.000;74.69347
 367.42;    8.303;  -52.040;    0.000;60.34249
 368.02;   -4.364;  -71.036;    0.000;66.67237
 368.62;   -6.771;   16.959;    0.000;-23.73040
 369.21;  -25.709;   -8.040;    0.000;-17.66902
 369.81;   12.374;  261.961;    0.000;-249.58655
 370.41;   38.274;  -75.029;    0.000;113.30337
 371.00;   18.859;  -67.045;    0.000;85.90328
 371.60;  -13.984;   -5.043;    0.000;-8.94137
 372.19;  -39.602;  -38.039;    0.000;-1.56354
 372.79;    9.923;  -72.033;    0.000;81.95623
 373.39;   32.692;    2.964;    0.000;29.72799
 373.98;   49.231;  -31.041;    0.000;80.27152
 374.58;   46.539;   -2.037;    0.000;48.57647
 375.17;   -9.368;  -58.047;    0.000;48.67888
 375.77;   -9.791;  157.959;    0.000;-167.74958
 376.37;   -4.851;  -40.042;    0.000;35.19097
 376.96;  -17.783;   40.959;    0.000;-58.74190
 377.56;    6.607;   49.963;    0.000;-43.35640
 378.15;   17.518;   18.962;    0.000;-1.44462
 378.75;  -35.808;   17.959;    0.000;-53.76684
 379.35;   21.277;  -64.040;    0.000;85.31755
 379.94;  -19.928;   36.958;    0.000;-56.88575
 380.54;  -38.078;  -71.044;    0.000;32.96657
 381.13;   20.184;   17.959;    0.000; 2.22549
 381.73;   25.836;  -29.034;    0.000;54.86992
 382.32;  -26.904;  -23.031;    0.000;-3.87308
 382.92;    1.262;  -37.040;    0.000;38.30221
 383.52;    6.516;  -33.038;    0.000;39.55346
 384.11;   19.246;  -29.041;    0.000;48.28687
 384.71;  -16.097;  -88.044;    0.000;71.94739
 385.30;   27.039;    2.957;    0.000;24.08165
 385.90;   48.291;   57.960;    0.000;-9.66902
 386.49;  -24.029;  -88.044;    0.000;64.01452
 387.09;   30.824;   21.955;    0.000; 8.86875
 387.68;   37.427;  -44.039;    0.000;81.46523
 388.28;  -30.608;  -38.039;    0.000; 7.43071
 388.87;   25.890;  286.966;    0.000;-261.07638
 389.47;  -37.043;  -33.044;    0.000;-3.99891
 390.07;   11.264;    0.960;    0.000;10.30413
 390.66;   -9.442;  -55.037;    0.000;45.59565
 391.26;  -27.926; -127.042;    0.000;99.11617
 391.85;   20.217;  -36.041;    0.000;56.25810
 392.45;  -38.868;  -80.042;    0.000;41.17371
 393.04;   27.704;  -55.036;    0.000;82.73950
 393.64;   12.537;  -83.037;    0.000;95.57456
 394.23;  -36.703;  -25.040;    0.000;-11.66327
 394.83;   -4.461;  -82.037;    0.000;77.57647
 395.42;  -32.314;  -29.047;    0.000;-3.26742
 396.02;   27.640;   82.964;    0.000;-55.32379
 396.61;  -19.140;  -37.045;    0.000;17.90520
 397.21;  -54.729;  -30.040;    0.000;-24.68820
 397.80; 1259.368;12139.961;    0.000;-10880.59230
 398.40;   -4.717;  107.960;    0.000;-112.67669
 398.99;  -34.697;  -34.040;    0.000;-0.65751
 399.59;  -10.021;  -18.043;    0.000; 8.02219
 400.18;  -17.647;  -10.039;    0.000;-7.60765
 400.78;    3.411;  -52.039;    0.000;55.44989
 401.37;   -0.135;  -85.034;    0.000;84.89869
 401.96;  -15.849;  -81.042;    0.000;65.19289
 402.56;   12.409; -102.039;    0.000;114.44797
 403.15;  -31.632;  -31.039;    0.000;-0.59230
 403.75;   53.690;  -19.036;    0.000;72.72607
 404.34;  -34.806;   -2.041;    0.000;-32.76492
 404.94;    1.277;  -82.040;    0.000;83.31755
 405.53;   -6.899; -111.042;    0.000;104.14302
 406.13;    1.023;   30.957;    0.000;-29.93370
 406.72;   22.778;  -57.035;    0.000;79.81238
 407.32;   12.295;  -22.040;    0.000;34.33481
 407.91;    2.413;   38.961;    0.000;-36.54819
 408.50;  -20.999;  -31.032;    0.000;10.03294
 409.10;   38.417;  -48.039;    0.000;86.45564
 409.69;   -3.273;   47.965;    0.000;-51.23748
 410.29;   -4.356;  -35.036;    0.000;30.68004
 410.88;   -1.556;  -48.038;    0.000;46.48250
 411.47;  -23.325;  -97.036;    0.000;73.71073
 412.07;   30.665;  -79.036;    0.000;109.70114
 412.66;    7.638;  -32.036;    0.000;39.67429
 413.26;    7.820;  -29.034;    0.000;36.85458
 413.85;  -19.116;  -52.034;    0.000;32.91787
 414.45;    3.473;   99.962;    0.000;-96.48874
 415.04;  -43.151; -105.034;    0.000;61.88335
 415.63;    5.469;  -21.038;    0.000;26.50743
 416.23;    1.462;  -22.038;    0.000;23.49976
 416.82;    7.339;   -3.040;    0.000;10.37893
 417.41;   -3.947;  -98.032;    0.000;94.08473
 418.01;  -12.449;  -60.037;    0.000;47.58798
 418.60;   22.306;  -20.040;    0.000;42.34632
 419.20;  -29.316;  -76.036;    0.000;46.72032
 419.79;  -46.120;    6.966;    0.000;-53.08597
 420.38;  -44.253;  -44.035;    0.000;-0.21831
 420.98;   13.890;  -92.034;    0.000;105.92362
 421.57;   -5.383;  -91.037;    0.000;85.65319
 422.16;    1.088;   -8.031;    0.000; 9.11925
 422.76;   -6.877;  -44.031;    0.000;37.15378
 423.35;  -12.232;  -92.035;    0.000;79.80279
 423.94;   -0.951;  148.968;    0.000;-149.91911
 424.54;    7.200;  -39.030;    0.000;46.23049
 425.13;   35.508;   46.962;    0.000;-11.45421
 425.73;  -16.062;   29.967;    0.000;-46.02843
 426.32;  -38.259;  -33.035;    0.000;-5.22406
 426.91;   13.235;    8.970;    0.000; 4.26502
 427.51;    3.384;    8.972;    0.000;-5.58730
 428.10;  -17.901;   -0.031;    0.000;-17.86924
 428.69;  -47.928;  -42.032;    0.000;-5.89609
 429.28;  -27.473; -104.038;    0.000;76.56497
 429.88;    9.818;  -31.034;    0.000;40.85266
 430.47;  -14.637;  -27.029;    0.000;12.39160
 431.06;    9.092;   -1.031;    0.000;10.12309
 431.66;    4.235;  -35.030;    0.000;39.26502
 432.25;   44.096;  -61.031;    0.000;105.12692
 432.84;  -18.530; -103.027;    0.000;84.49709
 433.44;  -16.232;  -51.035;    0.000;34.80279
 434.03;   -9.554;  -58.028;    0.000;48.47407
 434.62;   -1.881;  -27.031;    0.000;25.14994
 435.22;  -65.108;  -18.023;    0.000;-47.08480
 435.81;  -27.753;  -39.030;    0.000;11.27652
 436.40;    8.582;  -79.026;    0.000;87.60833
 436.99;   -6.873;  -28.031;    0.000;21.15761
 437.59;    9.253; -101.030;    0.000;110.28228
 438.18;  -12.482;    1.973;    0.000;-14.45497
 438.77;  -19.416; -101.026;    0.000;81.61024
 439.36;  -41.848;  -47.031;    0.000; 5.18254
 439.96;   -5.152;   61.977;    0.000;-67.12891
 440.55;    0.359;  -66.029;    0.000;66.38776
 441.14;   15.565;    2.974;    0.000;12.59107
 441.73;    5.750;  -20.035;    0.000;25.78553
 442.33;   21.012; -111.032;    0.000;132.04445
 442.92;   -0.270;   23.975;    0.000;-24.24591
 443.51;   -9.650;  -23.029;    0.000;13.37817
 444.10;  -16.817;  -42.030;    0.000;25.21323
 444.70;   -2.241;  -64.024;    0.000;61.78286
 445.29;   22.022;  -75.032;    0.000;97.05404
 445.88;  -64.738;  -94.030;    0.000;29.29187
 446.47;   39.764;   22.976;    0.000;16.78861
 447.07;  -38.350;  -87.025;    0.000;48.67546
 447.66;   16.183;   -5.030;    0.000;21.21323
 448.25;  -10.484;    6.973;    0.000;-17.45688
 448.84;    1.443;  -22.028;    0.000;23.47024
 449.43;    2.088;  -60.021;    0.000;62.10891
 450.03;   -0.162;   58.966;    0.000;-59.12816
 450.62;   -9.881; -126.031;    0.000;116.14994
 451.21;   35.977;  -56.033;    0.000;92.00993
 451.80;   -9.519;   56.973;    0.000;-66.49141
 452.39;    4.658;  -91.025;    0.000;95.68313
 452.99;  -29.146;  -46.023;    0.000;16.87684
 453.58;   19.782;  -42.024;    0.000;61.80588
 454.17;   -4.718;  -50.019;    0.000;45.30070
 454.76;   24.046;   26.979;    0.000;-2.93328
 455.35;   -9.175;   32.976;    0.000;-42.15193
 455.95;  -32.511;  -28.027;    0.000;-4.48373
 456.54;  -39.939;  -33.021;    0.000;-6.91794
 457.13;   41.553;  -52.026;    0.000;93.57956
 457.72;  -21.776;  -46.019;    0.000;24.24317
 458.31;  -11.871; -109.020;    0.000;97.14919
 458.90;  -32.350;   25.975;    0.000;-58.32454
 459.50;   21.543;   -2.027;    0.000;23.56997
 460.09;   40.381;  -72.028;    0.000;112.40886
 460.68;   32.741;  -92.024;    0.000;124.76560
 461.27;  -18.348;  -24.025;    0.000; 5.67737
 461.86;   31.877;  -20.023;    0.000;51.89985
 462.45;  -60.334;    2.986;    0.000;-63.31954
 463.04;   22.596;  -57.026;    0.000;79.62175
 463.64;   37.395;   69.983;    0.000;-32.58806
 464.23;    2.687;   44.975;    0.000;-42.28810
 464.82;  -10.073;  -30.022;    0.000;19.94972
 465.41;   -5.315;  -50.014;    0.000;44.69964
 466.00;  -10.061;  -48.022;    0.000;37.96123
 466.59;   23.536;    7.984;    0.000;15.55195
 467.18;   26.346;  -41.018;    0.000;67.36400
 467.77;   19.063;  -56.021;    0.000;75.08398
 468.37;  -37.340;  -63.025;    0.000;25.68504
 468.96;   10.652;  -33.025;    0.000;43.67737
 469.55;    3.896;   35.977;    0.000;-32.08097
 470.14;   28.681;  -10.025;    0.000;38.70614
 470.73;   29.452;   15.972;    0.000;13.47983
 471.32;   12.051;  -45.021;    0.000;57.07247
 471.91;   -9.817;  -52.020;    0.000;42.20289
 472.50;   23.377;  -75.028;    0.000;98.40503
 473.09;   17.544; -113.016;    0.000;130.55963
 473.68;   32.485;   42.973;    0.000;-10.48757
 474.27;  -27.572;  -68.017;    0.000;40.44455
 474.86;  -79.036;  -87.022;    0.000; 7.98616
 475.46;  -13.768;  -19.019;    0.000; 5.25084
 476.05;   77.214;   77.981;    0.000;-0.76642
 476.64;  -74.698;  -48.018;    0.000;-26.68012
 477.23;   -7.937;  -91.021;    0.000;83.08398
 477.82;   -2.776; -115.019;    0.000;112.24317
 478.41;    7.239;  -83.019;    0.000;90.25851
 479.00;  -18.929;  -19.021;    0.000; 0.09165
 479.59;   -3.237;   22.976;    0.000;-26.21330
 480.18;    0.418;   62.983;    0.000;-62.56504
 480.77;   17.395;  -51.017;    0.000;68.41194
 481.36;   32.408;  -89.017;    0.000;121.42537
 481.95;   17.022;   10.979;    0.000; 6.04370
 482.54;  -21.387; -106.026;    0.000;84.63901
 483.13;  -14.022;  -40.022;    0.000;25.99959
 483.72;  -26.477;  -49.016;    0.000;22.53853
 484.31;   32.259; -102.019;    0.000;134.27769
 484.90;  -16.679;  -20.018;    0.000; 3.33906
 485.49;   22.773;  -60.013;    0.000;82.78594
 486.08;   25.493;  -44.016;    0.000;69.50976
 486.67;   35.639;  -26.015;    0.000;61.65361
 487.26;   16.602;  -19.015;    0.000;35.61716
 487.85;   60.292;  -87.018;    0.000;147.31029
 488.44;  -25.016;  -98.022;    0.000;73.00534
 489.03;  -62.571;   46.983;    0.000;-109.55353
 489.62;    8.625;  -39.015;    0.000;47.64018
 490.21;   22.381; -101.018;    0.000;123.39852
 490.80;   20.585;  -51.015;    0.000;71.59990
 491.39;  -17.625; -120.018;    0.000;102.39277
 491.98;  -22.476;   -0.016;    0.000;-22.45955
 492.57;   20.864;  -63.012;    0.000;83.87609
 493.16;   11.133;  -42.020;    0.000;53.15302
 493.75;   40.168;  -77.020;    0.000;117.18755
 494.34;   -6.714;   -8.019;    0.000; 1.30454
 494.93;   29.732;  -57.014;    0.000;86.74567
 495.52;  -37.869;  -73.020;    0.000;35.15110
 496.11;   18.197;  -48.019;    0.000;66.21631
 496.70;  -28.282;  -84.025;    0.000;55.74258
 497.29;    7.241;  -31.019;    0.000;38.26043
 497.88;   25.398;   13.983;    0.000;11.41578
 498.47;    3.443;   27.983;    0.000;-24.54011
 499.06;   53.139;   27.980;    0.000;25.15878
 499.64;  -11.485;  -57.016;    0.000;45.53086
 500.23;  -37.728;  -57.019;    0.000;19.29111
 500.82;   13.336;  -52.018;    0.000;65.35441
 501.41;   43.970;   29.978;    0.000;13.99192
 502.00;   13.160;  -83.020;    0.000;96.17987
 502.59;    4.381;  -40.018;    0.000;44.39852
 503.18;  -14.693;  -28.018;    0.000;13.32564
 503.77;  -42.685; -122.018;    0.000;79.33331
 504.36;  -25.584;   45.983;    0.000;-71.56696
 504.95;  -32.646; -141.018;    0.000;108.37167
 505.54;  -39.745;  -93.019;    0.000;53.27385
 506.12;   13.321;   99.982;    0.000;-86.66094
 506.71;  -22.675;  -54.018;    0.000;31.34290
 507.30;  -35.115;   -3.023;    0.000;-32.09247
 507.89;    9.896;  -52.023;    0.000;61.91903
 508.48;   -5.528;  -72.017;    0.000;66.48866
 509.07;   34.697;   -7.025;    0.000;41.72149
 509.66;  -14.481;   10.984;    0.000;-25.46531
 510.25;  -27.073;  -83.022;    0.000;55.94972
 510.84;   19.148;  -32.020;    0.000;51.16837
 511.42;  -32.698;  -31.018;    0.000;-1.68012
 512.01;   15.120;  108.990;    0.000;-93.87075
 512.60;  -26.815;  -16.020;    0.000;-10.79519
 513.19;  -10.867;  -75.020;    0.000;64.15302
 513.78;    4.049;  -91.021;    0.000;95.07055
 514.37;  -51.474;  -35.016;    0.000;-16.45764
 514.95;    3.802;  -75.013;    0.000;78.81471
 515.54;  -54.605;   13.983;    0.000;-68.58806
 516.13;    9.185;  -89.020;    0.000;98.20481
 516.72;  -35.518;  -33.016;    0.000;-2.50175
 517.31;   66.519;  -29.016;    0.000;95.53469
 517.90;  -73.394;  -19.015;    0.000;-54.37900
 518.48;    1.451;  -68.017;    0.000;69.46757
 519.07;   15.092;  -16.021;    0.000;31.11275
 519.66;  -37.301;  125.986;    0.000;-163.28694
 520.25;  -42.415;  -34.015;    0.000;-8.40010
 520.84;  -28.712;    0.981;    0.000;-29.69354
 521.43;  -20.351;  -56.015;    0.000;35.66319
 522.01;   -5.379;   62.985;    0.000;-68.36366
 522.60;   47.414;    8.983;    0.000;38.43112
 523.19;   -4.503;   -4.016;    0.000;-0.48640
 523.78;  -15.730;  -31.019;    0.000;15.28920
 524.37;   14.057;   -7.021;    0.000;21.07822
 524.95;  -20.276;  -52.014;    0.000;31.73799
 525.54;  -45.743;    0.981;    0.000;-46.72423
 526.13;  -41.640;  -80.018;    0.000;38.37742
 526.72;  -32.989;   10.989;    0.000;-43.97815
 527.30;  -26.344;  -53.015;    0.000;26.67087
 527.89;    2.234;  -69.019;    0.000;71.25276
 528.48;   17.715;    2.986;    0.000;14.72840
 529.07;   17.309;   -3.018;    0.000;20.32756
 529.65;   19.837;  113.987;    0.000;-94.15076
 530.24;  -20.702;   -0.018;    0.000;-20.68395
 530.83;  -32.222;  -70.013;    0.000;37.79170
 531.42;    9.643;   -4.015;    0.000;13.65744
 532.00;  -46.545;  -25.017;    0.000;-21.52860
 532.59;  -15.020;  -12.011;    0.000;-3.00884
 533.18;  -11.043;   11.989;    0.000;-23.03185
 533.77;   -7.603;   47.983;    0.000;-55.58614
 534.35;  -22.386;   -8.015;    0.000;-14.37133
 534.94;   39.652;  -60.015;    0.000;99.66703
 535.53;  -22.977;   67.989;    0.000;-90.96664
 536.12;  -67.776;  -19.019;    0.000;-48.75683
 536.70;  -16.904;  -94.010;    0.000;77.10624
 537.29;  -42.190;  -25.013;    0.000;-17.17762
 537.88;    4.821;  -46.013;    0.000;50.83389
 538.46;   18.540;  -77.016;    0.000;95.55579
 539.05;  -47.158;  -27.013;    0.000;-20.14501
 539.64;   30.062;   13.990;    0.000;16.07172
 540.23;   43.691;   17.986;    0.000;25.70539
 540.81;   20.951;  101.989;    0.000;-81.03761
 541.40;   27.302;  -76.018;    0.000;103.31988
 541.99;   24.691;  -35.014;    0.000;59.70539
 542.57;  -38.183;  -71.013;    0.000;32.83006
 543.16;   -1.518;  -16.016;    0.000;14.49825
 543.75;   11.223;   10.992;    0.000; 0.23091
 544.33;   -9.202;   54.987;    0.000;-64.18912
 544.92;   -8.807;    8.991;    0.000;-17.79786
 545.51;  -48.260;   26.986;    0.000;-75.24666
 546.09;  -42.487;    1.984;    0.000;-44.47106
 546.68;  -18.435;   19.984;    0.000;-38.41928
 547.27;   26.054;  -14.010;    0.000;40.06404
 547.85;  -12.068;   -3.012;    0.000;-9.05679
 548.44;  -10.900;  -54.010;    0.000;43.11008
 549.03;   -9.851;  -28.009;    0.000;18.15802
 549.61;   -6.481;  -64.016;    0.000;57.53469
 550.20;  -26.031;  -62.011;    0.000;35.97966
 550.78;   28.722;   54.986;    0.000;-26.26392
 551.37;   21.467;  -76.006;    0.000;97.47257
 551.96;   30.186;  -30.009;    0.000;60.19446
 552.54;  -22.823;  -55.020;    0.000;32.19714
 553.13;  -22.406;  -59.015;    0.000;36.60949
 553.72;   12.810;  -92.013;    0.000;104.82238
 554.30;  -20.564;   47.994;    0.000;-68.55812
 554.89;  -23.597;  -54.006;    0.000;30.40927
 555.47;  -38.047;  -11.011;    0.000;-27.03569
 556.06;    9.668;  -39.014;    0.000;48.68237
 556.65;   -1.107;   -6.012;    0.000; 4.90486
 557.23;    3.841;  -27.013;    0.000;30.85307
 557.82;   13.143;  -93.009;    0.000;106.15227
 558.40;    9.947;  -89.011;    0.000;98.95856
 558.99;  -16.788;  -39.019;    0.000;22.23166
 559.58;   39.592;  -62.015;    0.000;101.60757
 560.16;  -53.743;  -99.019;    0.000;45.27577
 560.75;    2.484;  -70.016;    0.000;72.50017
 561.33;  -14.064;   51.988;    0.000;-66.05295
 561.92;   -3.425;  -69.015;    0.000;65.59031
 562.50;  -36.969;   12.990;    0.000;-49.95897
 563.09;   29.829;  -39.013;    0.000;68.84156
 563.68;  -34.088;  -31.012;    0.000;-3.07597
 564.26;  -34.274;  -95.014;    0.000;60.73991
 564.85;    4.850;  -18.012;    0.000;22.86266
 565.43;  -26.309;  -27.014;    0.000; 0.70539
 566.02;  -34.227;  -49.013;    0.000;14.78594
 566.60;   -9.919;   -5.010;    0.000;-4.90910
 567.19;    3.682;  -91.014;    0.000;94.69580
 567.77;   15.350;  -96.007;    0.000;111.35749
 568.36;    2.238;   50.992;    0.000;-48.75375
 568.94;  -64.000;  -64.011;    0.000; 0.01034
 569.53;  -34.078;    1.988;    0.000;-36.06638
 570.11;  -56.601;  -45.006;    0.000;-11.59456
 570.70;  -49.997;  -62.011;    0.000;12.01418
 571.28;   27.356;   59.982;    0.000;-32.62641
 571.87;   17.397;  -56.007;    0.000;73.40352
 572.45;  -35.861;  -62.009;    0.000;26.14843
 573.04;    7.474;  -66.016;    0.000;73.49058
 573.62;    2.027; -112.011;    0.000;114.03719
 574.21;   26.910;   51.988;    0.000;-25.07788
 574.79;    2.278;    8.981;    0.000;-6.70313
 575.38;  -62.991;    0.989;    0.000;-63.98007
 575.96;  -22.626;  -76.007;    0.000;53.38050
 576.55;  -29.828;  -62.009;    0.000;32.18104
 577.13;   -7.681;   14.993;    0.000;-22.67320
 577.72;   -1.907; -121.010;    0.000;119.10240
 578.30;  -43.241;  -53.013;    0.000; 9.77252
 578.89;  -14.572;  -90.006;    0.000;75.43421
 579.47;   37.800;  -44.013;    0.000;81.81279
 580.06;  -21.454;  -24.016;    0.000; 2.56154
 580.64;  -31.962;  -72.010;    0.000;40.04870
 581.23;   37.027;  -48.011;    0.000;85.03719
 581.81;  -31.163;   69.987;    0.000;-101.15076
 582.39;  -23.931;  -32.010;    0.000; 8.07939
 582.98;   -4.468;  -45.016;    0.000;40.54812
 583.56;  -17.600;  -24.017;    0.000; 6.41770
 584.15;   -5.256;   18.986;    0.000;-24.24283
 584.73;  -57.559;  -21.017;    0.000;-36.54202
 585.32;   34.755;   32.987;    0.000; 1.76868
 585.90;   20.461;  191.983;    0.000;-171.52285
 586.48;   -6.095;  -35.012;    0.000;28.91636
 587.07;  -10.049;   15.989;    0.000;-26.03761
 587.65;   21.943;   45.989;    0.000;-24.04528
 588.24;   -5.942;    2.990;    0.000;-8.93212
 588.82;  -21.018;  -59.011;    0.000;37.99308
 589.41;  160.135; 1498.991;    0.000;-1338.85540
 589.99;   15.670;   -7.014;    0.000;22.68429
 590.57;    6.310; -131.007;    0.000;137.31721
 591.16;    1.618;   51.985;    0.000;-50.36749
 591.74;  -23.991;  -35.011;    0.000;11.01993
 592.32;  -42.828;   11.991;    0.000;-54.81896
 592.91;   34.583;   62.985;    0.000;-28.40202
 593.49;   12.195;  -53.009;    0.000;65.20405
 594.08;  -30.291;  -62.014;    0.000;31.72265
 594.66;  -24.841;   34.991;    0.000;-59.83239
 595.24;  -62.774;   -2.008;    0.000;-60.76526
 595.83;  -60.142;  -90.012;    0.000;29.87033
 596.41;  -36.477;  -24.005;    0.000;-12.47181
 596.99;   18.244;    9.992;    0.000; 8.25200
 597.58;   -5.880;  -36.010;    0.000;30.12925
 598.16;  -19.561;  -28.017;    0.000; 8.45606
 598.74;   -8.940;   78.990;    0.000;-87.93020
 599.33;  -20.208;  -39.013;    0.000;18.80512
 599.91;    7.705;  -51.014;    0.000;58.71882
 600.49;  -14.433;  -41.015;    0.000;26.58264
 601.08;   33.197;   25.991;    0.000; 7.20597
 601.66;  -23.841;  -92.009;    0.000;68.16761
 602.24;   35.294;  -81.008;    0.000;116.30187
 602.83;   43.263;  -43.008;    0.000;86.27118
 603.41;    4.178;   -8.009;    0.000;12.18679
 603.99;    5.982;  -24.022;    0.000;30.00342
 604.58;  -10.954;   -0.010;    0.000;-10.94363
 605.16;  -30.169;  -42.013;    0.000;11.84348
 605.74;  -23.991;  -63.011;    0.000;39.01993
 606.33;   -6.888;  -19.010;    0.000;12.12158
 606.91;   21.685;  -20.014;    0.000;41.69964
 607.49;  -39.177;  -57.013;    0.000;17.83581
 608.07;  -23.785;    8.992;    0.000;-32.77677
 608.66;   59.110;  -87.010;    0.000;146.11966
 609.24;  -86.847;  -61.009;    0.000;-25.83814
 609.82;  -10.080;  -27.012;    0.000;16.93171
 610.41;  -57.047;  -48.011;    0.000;-9.03569
 610.99;  -32.925; -103.010;    0.000;70.08514
 611.57;   20.418;  -25.006;    0.000;45.42462
 612.15;   50.955;  -40.011;    0.000;90.96623
 612.74;   24.426;   34.994;    0.000;-10.56771
 613.32;  -20.004;  -37.011;    0.000;17.00651
 613.90;    4.120;   22.990;    0.000;-18.87075
 614.48;   28.856;  -46.012;    0.000;74.86841
 615.07;   -0.536;  -24.017;    0.000;23.48099
 615.65;    7.562;  -18.005;    0.000;25.56655
 616.23;  -54.999;  -70.011;    0.000;15.01226
 616.81;    0.272; -112.019;    0.000;112.29111
 617.40;   25.861;  -59.023;    0.000;84.88451
 617.98;   13.481;  -17.027;    0.000;30.50859
 618.56;  -22.588; -157.017;    0.000;134.42921
 619.14;  -35.842;  -48.020;    0.000;12.17796
 619.72;  -35.819;  -76.020;    0.000;40.20097
 620.31;   15.588;   16.985;    0.000;-1.39626
 620.89;  -32.175;   27.987;    0.000;-60.16227
 621.47;    3.749;  -84.014;    0.000;87.76293
 622.05;  -15.161;  -88.013;    0.000;72.85115
 622.63;  -17.470; -105.016;    0.000;87.54620
 623.22;   -2.745;  -55.008;    0.000;52.26351
 623.80;    6.461;  -27.017;    0.000;33.47715
 624.38;  -13.020;   93.989;    0.000;-107.00884
 624.96;  -47.468;  -55.016;    0.000; 7.54812
 625.54;   13.647;  -58.015;    0.000;71.66128
 626.13;  -22.822;  -33.009;    0.000;10.18679
 626.71;    1.813;  396.987;    0.000;-395.17378
 627.29;    7.061;  -58.021;    0.000;65.08206
 627.87;    8.773;  -37.013;    0.000;45.78594
 628.45;  -30.175;  -74.013;    0.000;43.83773
 629.03;    0.654;   33.985;    0.000;-33.33105
 629.62;   -0.390;  -39.015;    0.000;38.62484
 630.20;   12.670; -111.014;    0.000;123.68429
 630.78;   14.934;   23.988;    0.000;-9.05487
 631.36;  -14.607;  -47.017;    0.000;32.41003
 631.94;  -13.014;    5.989;    0.000;-19.00308
 632.52;   23.131;    6.991;    0.000;16.14076
 633.10;  -29.600;  -19.017;    0.000;-10.58230
 633.68;   27.521;  -86.016;    0.000;113.53661
 634.27;  -36.371;  -31.015;    0.000;-5.35598
 634.85;  -52.536;  -75.017;    0.000;22.48099
 635.43;    9.003;  -78.022;    0.000;87.02452
 636.01;  -24.171;  -77.013;    0.000;52.84156
 636.59;  -21.278;  -60.014;    0.000;38.73608
 637.17;  -12.286;    8.975;    0.000;-21.26125
 637.75;  -23.658;  -61.018;    0.000;37.36016
 638.33;   11.292;  -73.018;    0.000;84.31029
 638.91;   18.449;   19.983;    0.000;-1.53435
 639.50;  -43.059;  -84.022;    0.000;40.96315
 640.08;    6.563;  -99.016;    0.000;105.57830
 640.66;   -7.434; -116.015;    0.000;108.58179
 641.24;    0.570;   31.985;    0.000;-31.41473
 641.82;   -4.427;  -34.015;    0.000;29.58875
 642.40;   -0.423;  -31.015;    0.000;30.59224
 642.98;    5.580;  -39.015;    0.000;44.59572
 643.56;   14.584;  -69.015;    0.000;83.59921
 644.14;  -21.413;  -16.015;    0.000;-5.39731
 644.72;    6.591;  -36.015;    0.000;42.60618
 645.30;  -67.406;  -19.015;    0.000;-48.39034
 645.88;  -48.402;  -93.015;    0.000;44.61315
 646.46;  -14.398;  -46.015;    0.000;31.61663
 647.04;   29.605;  -31.015;    0.000;60.62012
 647.62;   -6.391;   43.985;    0.000;-50.37640
 648.20;  -13.388;  -27.015;    0.000;13.62708
 648.78;   28.616;   13.985;    0.000;14.63057
 649.36;  -70.381;   -2.015;    0.000;-68.36595
 649.94;   -6.377;  -51.015;    0.000;44.63754
 650.52;    7.626; -105.015;    0.000;112.64102
 651.11;   21.630;  -67.015;    0.000;88.64451
 651.69;  -17.367;  -26.015;    0.000; 8.64799
 652.27;   -6.363;  -61.015;    0.000;54.65148
 652.85;   -6.360; -143.015;    0.000;136.65496
 653.43;   62.644;  -46.015;    0.000;108.65845
 654.01;   61.647;  -71.015;    0.000;132.66193
 654.59;   17.651;  -81.015;    0.000;98.66541
 655.17;   15.654; -112.015;    0.000;127.66890
 655.74;  -42.342;  -69.015;    0.000;26.67238
 656.32;   45.661;  -12.014;    0.000;57.67587
 656.90;    9.665;  -51.014;    0.000;60.67935
 657.48;   63.668;   77.986;    0.000;-14.31716
 658.06;   58.672;  -74.014;    0.000;132.68632
 658.64;   49.675;  -34.014;    0.000;83.68981
 659.22;   31.679; -116.014;    0.000;147.69329
 659.80;  -30.317;  -73.014;    0.000;42.69678
 660.38;  -29.314;  -45.014;    0.000;15.70026
 660.96;   47.690;  -94.014;    0.000;141.70374
 661.54;  -26.307;  -69.014;    0.000;42.70723
 662.12;    4.697;   -9.014;    0.000;13.71071
 662.70;   47.700;  -52.014;    0.000;99.71420
 663.28;   39.704;   -4.014;    0.000;43.71768
 663.86;   24.707;   -7.014;    0.000;31.72117
 664.44;  103.711;   -8.014;    0.000;111.72465
 665.02;   38.714;   -0.014;    0.000;38.72814
 665.60;   88.718;  -41.014;    0.000;129.73162
 666.18;   64.721;  -10.014;    0.000;74.73511
 666.75;   84.725;   40.986;    0.000;43.73859
 667.33;   64.728;  -70.014;    0.000;134.74207
 667.91;   81.732;  130.986;    0.000;-49.25444
 668.49;   32.735;    9.986;    0.000;22.74904
 669.07;   76.739;  -12.014;    0.000;88.75253
 669.65;   86.742;  -49.014;    0.000;135.75601
 670.23;  106.746;  -74.014;    0.000;180.75950
 670.81;   75.749;  -28.014;    0.000;103.76298
 671.39;  136.753;  -84.013;    0.000;220.76647
 671.97;   68.757;  -20.013;    0.000;88.76995
 672.54;  159.760;  -32.013;    0.000;191.77344
 673.12;  135.764;  -13.013;    0.000;148.77692
 673.70;  148.767;  -25.013;    0.000;173.78041
 674.28;  164.771;  -12.013;    0.000;176.78389
 674.86;  110.774;  -77.013;    0.000;187.78737
 675.44;  124.778;  -28.013;    0.000;152.79086
 676.02;  174.781;   23.987;    0.000;150.79434
 676.59;  200.785;  -26.013;    0.000;226.79783
 677.17;  196.788;  -27.013;    0.000;223.80131
 677.75;  213.792;  -50.013;    0.000;263.80480
 678.33;  296.795; -119.013;    0.000;415.80828
 678.91;  179.799;  -56.013;    0.000;235.81177
 679.49;  250.802;  -52.013;    0.000;302.81525
 680.06;  260.806;  -79.013;    0.000;339.81874
 680.64;  253.809;  -84.013;    0.000;337.82222
 681.22;  276.813;  -77.013;    0.000;353.82570
 681.80;  308.816; -101.013;    0.000;409.82919
 682.38;  311.820;   -0.013;    0.000;311.83267
 682.96;  362.823;    8.987;    0.000;353.83616
 683.53;  287.827;    1.987;    0.000;285.83964
 684.11;  310.830;  -52.013;    0.000;362.84313
 684.69;  414.834;  -68.013;    0.000;482.84661
 685.27;  452.838;   28.987;    0.000;423.85010
 685.85;  467.841;  -27.013;    0.000;494.85358
 686.42;  492.845;  -34.012;    0.000;526.85707
 687.00;  495.848;  -46.012;    0.000;541.86055
 687.58;  513.852;  -49.012;    0.000;562.86403
 688.16;  556.855;  -93.012;    0.000;649.86752
 688.73;  578.859;  -67.012;    0.000;645.87100
 689.31;  630.862;   48.988;    0.000;581.87449
 689.89;  600.866;  -28.012;    0.000;628.87797
 690.47;  655.869;   71.988;    0.000;583.88146
 691.04;  744.873;  -14.012;    0.000;758.88494
 691.62;  683.876;   32.988;    0.000;650.88843
 692.20;  755.880;  -93.012;    0.000;848.89191
 692.78;  748.883;   -4.012;    0.000;752.89540
 693.35;  794.887;  -23.012;    0.000;817.89888
 693.93;  842.890;  -83.012;    0.000;925.90236
 694.51;  828.894; -143.012;    0.000;971.90585
 695.09;  982.897;  -98.012;    0.000;1080.90933
 695.66;  914.901;  -71.012;    0.000;985.91282
 696.24;  891.904; -143.012;    0.000;1034.91630
 696.82;  985.908;  -27.012;    0.000;1012.91979
 697.39; 1012.912;  -79.012;    0.000;1091.92327
 697.97; 1087.915;  -82.012;    0.000;1169.92676
 698.55; 1165.919; -149.012;    0.000;1314.93024
 699.13; 1166.922;  -73.012;    0.000;1239.93373
 699.70; 1187.926; -105.012;    0.000;1292.93721
 700.28; 1234.929;  -71.012;    0.000;1305.94069
 700.86; 1344.933;  -37.012;    0.000;1381.94418
 701.43; 1405.936;  -50.012;    0.000;1455.94766
 702.01; 1375.940;  -86.011;    0.000;1461.95115
 702.59; 1520.943;  -48.011;    0.000;1568.95463
 703.16; 1569.947; -103.011;    0.000;1672.95812
 703.74; 1546.950;  -12.011;    0.000;1558.96160
 704.32; 1635.954;   74.989;    0.000;1560.96509
 704.89; 1680.957;  -58.011;    0.000;1738.96857
 705.47; 1668.961;  -52.011;    0.000;1720.97206
 706.05; 1937.964;  -53.011;    0.000;1990.97554
 706.62; 1873.968;  -22.011;    0.000;1895.97902
 707.20; 1932.971;  -72.011;    0.000;2004.98251
 707.78; 1956.975;  -57.011;    0.000;2013.98599
 708.35; 2128.978; -105.011;    0.000;2233.98948
 708.93; 2243.982;   23.989;    0.000;2219.99296
 709.51; 2195.985;  -78.011;    0.000;2273.99645
 710.08; 2274.989; -112.011;    0.000;2386.99993
 710.66; 2352.993;   -0.011;    0.000;2353.00342
 711.23; 2376.996;  -34.011;    0.000;2411.00690
 711.81; 2491.000; -127.011;    0.000;2618.01039
 712.39; 2505.003;   -9.011;    0.000;2514.01387
 712.96; 2632.007;  -71.011;    0.000;2703.01735
 713.54; 2739.010;  -88.011;    0.000;2827.02084
 714.11; 2827.014;  -82.011;    0.000;2909.02432
 714.69; 2906.017;  -57.011;    0.000;2963.02781
 715.27; 3069.021;  -36.011;    0.000;3105.03129
 715.84; 3105.024;  -35.011;    0.000;3140.03478
 716.42; 3206.028;  -61.011;    0.000;3267.03826
 716.99; 3388.031;  -47.010;    0.000;3435.04175
 717.57; 3530.035;  259.990;    0.000;3270.04523
 718.15; 3555.038;  -22.010;    0.000;3577.04872
 718.72; 3719.042;    2.990;    0.000;3716.05220
 719.30; 3714.045;  -90.010;    0.000;3804.05569
 719.87; 3973.049; -131.010;    0.000;4104.05917
 720.45; 4142.052; -100.010;    0.000;4242.06265
 721.02; 4226.056;  -64.010;    0.000;4290.06614
 721.60; 4564.059; -114.010;    0.000;4678.06962
 722.17; 4516.063;  -62.010;    0.000;4578.07311
 722.75; 4779.067;  -69.010;    0.000;4848.07659
 723.33; 4964.070;  -99.010;    0.000;5063.08008
 723.90; 5028.074;  -10.010;    0.000;5038.08356
 724.48; 5165.077;  -40.010;    0.000;5205.08705
 725.05; 5353.081;  -79.010;    0.000;5432.09053
 725.63; 5768.084;   25.990;    0.000;5742.09402
 726.20; 5505.088;  -15.010;    0.000;5520.09750
 726.78; 5695.091;  -98.010;    0.000;5793.10098
 727.35; 6099.095;   21.990;    0.000;6077.10447
 727.93; 6239.098;  -91.010;    0.000;6330.10795
 728.50; 6311.102;  112.990;    0.000;6198.11144
 729.08; 6417.105;  -13.010;    0.000;6430.11492
 729.65; 6896.109;   70.990;    0.000;6825.11841
 730.23; 6914.112;  -74.010;    0.000;6988.12189
 730.80; 7112.116;  -35.010;    0.000;7147.12538
 731.38; 7350.119;  -87.010;    0.000;7437.12886
 731.95; 7361.123;   47.991;    0.000;7313.13235
 732.53; 7691.126;  -34.009;    0.000;7725.13583
 733.10; 7584.130;  -37.009;    0.000;7621.13931
 733.68; 7733.133; -113.009;    0.000;7846.14280
 734.25; 7796.137;  -81.009;    0.000;7877.14628
 734.82; 7683.140;  -25.009;    0.000;7708.14977
 735.40; 8084.144;  -87.009;    0.000;8171.15325
 735.97; 8109.148;   -6.009;    0.000;8115.15674
 736.55; 8245.151;  -22.009;    0.000;8267.16022
 737.12; 8455.155;  -32.009;    0.000;8487.16371
 737.70; 8160.158; -100.009;    0.000;8260.16719
 738.27; 8217.162;  -51.009;    0.000;8268.17068
 738.85; 8265.165; -101.009;    0.000;8366.17416
 739.42; 8259.169;  -92.009;    0.000;8351.17764
 739.99; 7990.172;   17.991;    0.000;7972.18113
 740.57; 8023.176;  -21.009;    0.000;8044.18461
 741.14; 8109.179;   -7.009;    0.000;8116.18810
 741.72; 8123.183;  -60.009;    0.000;8183.19158
 742.29; 8054.186;  -94.009;    0.000;8148.19507
 742.87; 7872.190;  -80.009;    0.000;7952.19855
 743.44; 7740.193;  -58.009;    0.000;7798.20204
 744.01; 7503.197;  -75.009;    0.000;7578.20552
 744.59; 7366.200;  -68.009;    0.000;7434.20901
 745.16; 7074.204;  -40.009;    0.000;7114.21249
 745.73; 6831.207; -106.009;    0.000;6937.21597
 746.31; 6665.211;  -58.009;    0.000;6723.21946
 746.88; 6282.214; -137.008;    0.000;6419.22294
 747.46; 6054.218;    2.992;    0.000;6051.22643
 748.03; 6016.221;  -94.008;    0.000;6110.22991
 748.60; 5648.225;  -38.008;    0.000;5686.23340
 749.18; 5423.229;  -71.008;    0.000;5494.23688
 749.75; 5102.232;   25.992;    0.000;5076.24037
 750.32; 4812.236; -104.008;    0.000;4916.24385
 750.90; 4645.239;  -62.008;    0.000;4707.24734
 751.47; 4411.243;   28.992;    0.000;4382.25082
 752.04; 4178.246;  -71.008;    0.000;4249.25430
 752.62; 3922.250;  -81.008;    0.000;4003.25779
 753.19; 3631.253;  -13.008;    0.000;3644.26127
 753.76; 3275.257;  -97.008;    0.000;3372.26476
 754.34; 3284.260;   -1.008;    0.000;3285.26824
 754.91; 2932.264;  -67.008;    0.000;2999.27173
 755.48; 2764.267;  -26.008;    0.000;2790.27521
 756.06; 2534.271;   35.992;    0.000;2498.27870
 756.63; 2452.274;    9.992;    0.000;2442.28218
 757.20; 2147.278; -110.008;    0.000;2257.28567
 757.78; 2043.281; -109.008;    0.000;2152.28915
 758.35; 1949.285;  -21.008;    0.000;1970.29263
 758.92; 1722.288;  -49.008;    0.000;1771.29612
 759.50; 1553.292; -123.008;    0.000;1676.29960
 760.07; 1452.295;  -28.008;    0.000;1480.30309
 760.64; 1184.299; -114.008;    0.000;1298.30657
 761.21; 1227.303;  -26.008;    0.000;1253.31006
 761.79; 1184.306; -150.008;    0.000;1334.31354
 762.36;  963.310;    4.993;    0.000;958.31703
 762.93;  985.313;  -64.007;    0.000;1049.32051
 763.50;  839.317;  -56.007;    0.000;895.32400
 764.08;  716.320;  -75.007;    0.000;791.32748
 764.65;  671.324;  -52.007;    0.000;723.33097
 765.22;  682.327;  -49.007;    0.000;731.33445
 765.79;  593.331;  -47.007;    0.000;640.33793
 766.37;  520.334;  -10.007;    0.000;530.34142
 766.94;  471.338;  -49.007;    0.000;520.34490
 767.51;  402.341;  -86.007;    0.000;488.34839
 768.08;  478.345;  -18.007;    0.000;496.35187
 768.66;  299.348;   -5.007;    0.000;304.35536
 769.23;  289.352;  -48.007;    0.000;337.35884
 769.80;  242.355;  -98.007;    0.000;340.36233
 770.37;  224.359;  -98.007;    0.000;322.36581
 770.94;  232.362;  -57.007;    0.000;289.36930
 771.52;  212.366;  -80.007;    0.000;292.37278
 772.09;  199.369;  -34.007;    0.000;233.37626
 772.66;  160.373;   -4.007;    0.000;164.37975
 773.23;  151.376;   20.993;    0.000;130.38323
 773.80;  195.380;  -48.007;    0.000;243.38672
 774.38;  141.384;  -92.007;    0.000;233.39020
 774.95;  142.387;    1.993;    0.000;140.39369
 775.52;   63.391;    7.993;    0.000;55.39717
 776.09;   94.394;  -93.007;    0.000;187.40066
 776.66;   74.398;  -88.007;    0.000;162.40414
 777.24;   63.401;  -43.006;    0.000;106.40763
 777.81;   64.405;   36.994;    0.000;27.41111
 778.38;   56.408;  -57.006;    0.000;113.41459
 778.95;  -13.588;  -60.006;    0.000;46.41808
 779.52;   56.415;  -45.006;    0.000;101.42156
 780.09;  110.419;  102.994;    0.000; 7.42505
 780.66;   19.422;  -35.006;    0.000;54.42853
 781.24;   21.426;   15.994;    0.000; 5.43202
 781.81;   54.429;  -81.006;    0.000;135.43550
 782.38;  -34.567;  -82.006;    0.000;47.43899
 782.95;   14.436; -106.006;    0.000;120.44247
 783.52;    8.440;  -51.006;    0.000;59.44596
 784.09;  -16.557;  -73.006;    0.000;56.44944
 784.66;   26.447;  -42.006;    0.000;68.45292
 785.23;   33.450; -108.006;    0.000;141.45641
 785.80;   30.454;  -93.006;    0.000;123.45989
 786.38;   25.458;   10.994;    0.000;14.46338
 786.95;   36.461;  -46.006;    0.000;82.46686
 787.52;   12.465;  -24.006;    0.000;36.47035
 788.09;  -54.532;  -78.006;    0.000;23.47383
 788.66;   30.472; -134.006;    0.000;164.47732
 789.23;  -38.525;   47.994;    0.000;-86.51920
 789.80;   45.479;  -64.006;    0.000;109.48429
 790.37;  -64.518;  -54.006;    0.000;-10.51223
 790.94;   11.486;   45.994;    0.000;-34.50875
 791.51;   20.489; -123.006;    0.000;143.49474
 792.08;  -30.507; -103.005;    0.000;72.49822
 792.65;  -16.504;  -40.005;    0.000;23.50171
 793.22;   -3.500;   31.995;    0.000;-35.49481
 793.80;  -19.497;  -37.005;    0.000;17.50868
 794.37;   21.507;  -41.005;    0.000;62.51216
 794.94;  -48.490;   42.995;    0.000;-91.48435
 795.51;  -21.486;  -49.005;    0.000;27.51913
 796.08;   19.517;  -38.005;    0.000;57.52262
 796.65;  -56.479;  -72.005;    0.000;15.52610
 797.22;   25.524;  -86.005;    0.000;111.52958
 797.79;   -3.472;   73.995;    0.000;-77.46693
 798.36;  -91.469;  -76.005;    0.000;-15.46345
 798.93;  -45.465;  -92.005;    0.000;46.54004
 799.50;  -19.461;  -48.005;    0.000;28.54352
 800.07;   -0.458;  -76.005;    0.000;75.54701
 800.64;  -54.454;  -91.005;    0.000;36.55049
 801.21;  -48.451;  -67.005;    0.000;18.55398
 801.78;  -15.447;  -58.005;    0.000;42.55746
 802.35;   21.556;  -61.005;    0.000;82.56095
 802.92;  -39.440;  -74.005;    0.000;34.56443
 803.49;  -28.437;  -41.005;    0.000;12.56791
 804.06;   24.567;  -93.005;    0.000;117.57140
 804.63;  -48.430; -110.005;    0.000;61.57488
 805.20;  -30.426;  -20.005;    0.000;-10.42163
 805.77;    5.577;  -74.005;    0.000;79.58185
 806.34;  -47.419;  -54.005;    0.000; 6.58534
 806.91;   -0.416;  -34.004;    0.000;33.58882
 807.47;  -17.412; -119.004;    0.000;101.59231
 808.04;   -8.409;  -73.004;    0.000;64.59579
 808.61;  -44.405;  -39.004;    0.000;-5.40072
 809.18;  -50.402;    7.996;    0.000;-58.39724
 809.75;  -29.398;  -67.004;    0.000;37.60625
 810.32;  -41.395;  -87.004;    0.000;45.60973
 810.89;  -13.391;  -66.004;    0.000;52.61321
 811.46;    2.613;  -37.004;    0.000;39.61670
 812.03;  -62.384; -132.004;    0.000;69.62018
 812.60;  -29.380; -119.004;    0.000;89.62367
 813.17;  -73.377;  -13.004;    0.000;-60.37285
 813.74;  -13.373;   43.996;    0.000;-57.36936
 814.31;   10.630;  -32.004;    0.000;42.63412
 814.87;  -14.366;    0.996;    0.000;-15.36239
 815.44;  -81.363;  -65.004;    0.000;-16.35891
 816.01;   18.641;   43.996;    0.000;-25.35542
 816.58;  -23.356;  -88.004;    0.000;64.64806
 817.15;  -33.352;   52.996;    0.000;-86.34846
 817.72;  -20.349;  -61.004;    0.000;40.65503
 818.29;    0.655;  -34.004;    0.000;34.65851
 818.86;   -9.342;   25.996;    0.000;-35.33800
 819.42;  -52.338;  -45.004;    0.000;-7.33452
 819.99;  -37.335;  -39.004;    0.000; 1.66897
 820.56;  -13.331;  -80.004;    0.000;66.67245
 821.13;  -86.328;  -31.004;    0.000;-55.32406
 821.70;   -1.324; -110.004;    0.000;108.67942
 822.27;  -67.321;  -10.003;    0.000;-57.31709
 822.84;   12.683;  -45.003;    0.000;57.68639
 823.40;   -1.314;  -96.003;    0.000;94.68987
 823.97;  -42.310;    4.997;    0.000;-47.30664
 824.54;  -41.306;  -95.003;    0.000;53.69684
 825.11;   13.697;  -94.003;    0.000;107.70033
 825.68;   29.701;   91.997;    0.000;-62.29619
 826.24;    2.704;  -83.003;    0.000;85.70730
 826.81;  -58.292;  -71.003;    0.000;12.71078
 827.38;  -13.289;  -87.003;    0.000;73.71427
 827.95;   -2.285;  -75.003;    0.000;72.71775
 828.52;  -54.282;  -79.003;    0.000;24.72124
 829.08;  -95.278;  -31.003;    0.000;-64.27528
 829.65;  -10.275;  -51.003;    0.000;40.72820
 830.22;  -55.271;  -55.003;    0.000;-0.26831
 830.79;  -14.268;  -57.003;    0.000;42.73517
 831.36; -122.264;  -25.003;    0.000;-97.26134
 831.92;  -30.261;   34.997;    0.000;-65.25786
 832.49;  -72.257; -131.003;    0.000;58.74563
 833.06;   17.746;  -33.003;    0.000;50.74911
 833.63;  -44.250;  -54.003;    0.000; 9.75260
 834.19;  -26.247;  -60.003;    0.000;33.75608
 834.76;   35.757;  -32.003;    0.000;67.75957
 835.33;  -35.240;  -71.003;    0.000;35.76305
 835.90;   17.764; -124.003;    0.000;141.76653
 836.46;  -83.232;  -58.003;    0.000;-25.22998
 837.03;   -4.229;  -54.002;    0.000;49.77350
 837.60;  -13.225;  -21.002;    0.000; 7.77699
 838.17;  -18.222;   32.998;    0.000;-51.21953
 838.73;   -2.218;  -33.002;    0.000;30.78396
 839.30;  -10.215;   12.998;    0.000;-23.21256
 839.87;  -21.211;   -0.002;    0.000;-21.20907
 840.43;   -9.208;  -16.002;    0.000; 6.79441
 841.00;    9.796;    2.998;    0.000; 6.79790
 841.57;  -48.201;  -32.002;    0.000;-16.19862
 842.14;  -14.197;  -81.002;    0.000;66.80486
 842.70;  -27.194;   11.998;    0.000;-39.19165
 843.27;  -23.190;    8.998;    0.000;-32.18817
 843.84;  -50.187; -102.002;    0.000;51.81532
 844.40;  -35.183;  -75.002;    0.000;39.81880
 844.97;  -24.180;  -46.002;    0.000;21.82229
 845.54;   -2.176;  -85.002;    0.000;82.82577
 846.10;  -20.173;  -35.002;    0.000;14.82926
 846.67;  -32.169;  -94.002;    0.000;61.83274
 847.24;  -24.166; -113.002;    0.000;88.83623
 847.80;   -9.162;  -66.002;    0.000;56.83971
 848.37;  -62.159;   -2.002;    0.000;-60.15681
 848.94;   10.845;   38.998;    0.000;-28.15332
 849.50;  -37.151;   46.998;    0.000;-84.14984
 850.07;  -29.148; -122.002;    0.000;92.85365
 850.63;  -23.144;   -7.002;    0.000;-16.14287
 851.20;    3.859; -184.002;    0.000;187.86062
 851.77;   -5.137; -114.001;    0.000;108.86410
 852.33;  -29.134;   17.999;    0.000;-47.13241
 852.90;   -5.130;  -65.001;    0.000;59.87107
 853.47;  -14.127;  -23.001;    0.000; 8.87456
 854.03;  -35.123;  -70.001;    0.000;34.87804
 854.60;   -1.120;    5.999;    0.000;-7.11847
 855.16;  -15.116;   34.999;    0.000;-50.11499
 855.73;   -5.113;   23.999;    0.000;-29.11151
 856.30;    1.891;   12.999;    0.000;-11.10802
 856.86;  -30.106;  -52.001;    0.000;21.89546
 857.43;   26.898;   38.999;    0.000;-12.10105
 857.99;    1.901;  -68.001;    0.000;69.90243
 858.56;   -5.095; -104.001;    0.000;98.90592
 859.12;  -30.092;  -87.001;    0.000;56.90940
 859.69;  -28.088;  -60.001;    0.000;31.91289
 860.26;   16.915; -104.001;    0.000;120.91637
 860.82;  -96.081;  -54.001;    0.000;-42.08014
 861.39;    8.923;   18.999;    0.000;-10.07666
 861.95;  -66.074;  -37.001;    0.000;-29.07318
 862.52;  -21.070;    4.999;    0.000;-26.06969
 863.08;  -28.067;  -78.001;    0.000;49.93379
 863.65;   36.937;  -32.001;    0.000;68.93728
 864.21;   -6.060;  -78.001;    0.000;71.94076
 864.78;  -16.056;    7.999;    0.000;-24.05575
 865.34;  -43.053;  176.999;    0.000;-220.05227
 865.91;   -5.049;  -26.001;    0.000;20.95122
 866.47;  -24.046; -106.000;    0.000;81.95470
 867.04;    9.958;  -30.000;    0.000;39.95819
 867.61;   -3.039;  -90.000;    0.000;86.96167
 868.17;   -0.035;  -33.000;    0.000;32.96515
 868.74;   -9.032;  -71.000;    0.000;61.96864
 869.30;   24.972;  -84.000;    0.000;108.97212
 869.86;  -54.025;  -31.000;    0.000;-23.02439
 870.43;  -58.021; -162.000;    0.000;103.97909
 870.99;  -57.018; -146.000;    0.000;88.98258
 871.56;   -9.014;   -7.000;    0.000;-2.01394
 872.12;  -20.011; -126.000;    0.000;105.98955
 872.69;    7.993;  -87.000;    0.000;94.99303
 873.25;  -20.004;  -61.000;    0.000;40.99652
 873.82;  -29.000;  -70.000;    0.000;41.00000
 874.38;   -3.000;    5.000;    0.000;-8.00000
 874.95;    1.000;  -30.000;    0.000;31.00000
 875.51;   -5.000;  -47.000;    0.000;42.00000
 876.08;  -19.000; -104.000;    0.000;85.00000
 876.64;  -21.000;  -93.000;    0.000;72.00000
 877.20;  -42.000;  -73.000;    0.000;31.00000
 877.77;  -30.000;  -61.000;    0.000;31.00000
 878.33;  -53.000; -115.000;    0.000;62.00000
 878.90;    6.000;    0.000;    0.000; 6.00000
 879.46;  -31.000;  -96.000;    0.000;65.00000
 880.03;  -24.000;   -6.000;    0.000;-18.00000
 880.59;   22.000;  -52.000;    0.000;74.00000
 881.15;  -65.000;   -3.000;    0.000;-62.00000
 881.72;  -46.000;  -85.000;    0.000;39.00000
 882.28;  -76.000;  -38.000;    0.000;-38.00000
 882.85;  -37.000;  -80.000;    0.000;43.00000
 883.41;  -40.000;   -8.000;    0.000;-32.00000
 883.97;   19.000;  259.000;    0.000;-240.00000
 884.54;  -48.000;  -62.000;    0.000;14.00000
 885.10;   -7.000;  -98.000;    0.000;91.00000
 885.66;    5.000;   30.000;    0.000;-25.00000
 886.23;  -35.000;  -75.000;    0.000;40.00000
 886.79;  -29.000;  -44.000;    0.000;15.00000
 887.36;  -73.000;  -62.000;    0.000;-11.00000
 887.92;  -26.000; -115.000;    0.000;89.00000
 888.48;  -30.000; -126.000;    0.000;96.00000
 889.05;   -4.000; -109.000;    0.000;105.00000
 889.61;   15.000;  -71.000;    0.000;86.00000
 890.17;  -15.000; -119.000;    0.000;104.00000
 890.74;   26.000;  -51.000;    0.000;77.00000
 891.30;  -42.000;  -49.000;    0.000; 7.00000
 891.86;    9.000; -100.000;    0.000;109.00000
 892.43;  -15.000; -113.000;    0.000;98.00000
 892.99;   34.000;  -47.000;    0.000;81.00000
 893.55;  -44.000; -133.000;    0.000;89.00000
 894.11;  -64.000;  -44.000;    0.000;-20.00000
 894.68;  -76.000;    8.000;    0.000;-84.00000
 895.24;  -30.000;   90.000;    0.000;-120.00000
 895.80;  -48.000;  -69.000;    0.000;21.00000
 896.37;  -43.000;  -60.000;    0.000;17.00000
 896.93;  -27.000;   24.000;    0.000;-51.00000
 897.49;   -1.000;  -65.000;    0.000;64.00000
 898.05;    4.000;  -15.000;    0.000;19.00000
 898.62;  -41.000;   34.000;    0.000;-75.00000
 899.18;  -96.000;  -72.000;    0.000;-24.00000
 899.74;    8.000;  105.000;    0.000;-97.00000
 900.31;  -71.000;  -72.000;    0.000; 1.00000
 900.87;    7.000; -117.000;    0.000;124.00000
 901.43;  -71.000; -125.000;    0.000;54.00000
 901.99;  -37.000;  -29.000;    0.000;-8.00000
 902.56;  -27.000;   -7.000;    0.000;-20.00000
 903.12;    4.000;  173.000;    0.000;-169.00000
 903.68;   -5.000;  -10.000;    0.000; 5.00000
 904.24;  -34.000;  -54.000;    0.000;20.00000
 904.80;  -43.000;  -42.000;    0.000;-1.00000
 905.37;  -42.000; -103.000;    0.000;61.00000
 905.93;  -21.000;  -27.000;    0.000; 6.00000
 906.49;   11.000;    0.000;    0.000;11.00000
 907.05;  -20.000;  -71.000;    0.000;51.00000
 907.61;  -36.000;  -66.000;    0.000;30.00000
 908.18;  -46.000;   49.000;    0.000;-95.00000
 908.74;   -5.000;  -79.000;    0.000;74.00000
 909.30;  -63.000;  -76.000;    0.000;13.00000
 909.86;  -35.000;  -29.000;    0.000;-6.00000
 910.42;  -21.000;  -41.000;    0.000;20.00000
 910.99;  -60.000;  -25.000;    0.000;-35.00000
 911.55;  -35.000;  -97.000;    0.000;62.00000
 912.11;   34.000;  -37.000;    0.000;71.00000
 912.67;  -24.000;  -20.000;    0.000;-4.00000
 913.23;  -27.000;  -78.000;    0.000;51.00000
 913.79;  -61.000;  -26.000;    0.000;-35.00000
 914.36;    4.000;  -94.000;    0.000;98.00000
 914.92;    0.000;   10.000;    0.000;-10.00000
 915.48;   15.000;  -55.000;    0.000;70.00000
 916.04;  -30.000;   85.000;    0.000;-115.00000
 916.60;  -23.000;  -64.000;    0.000;41.00000
 917.16;  -85.000; -173.000;    0.000;88.00000
 917.72;  -45.000;  -66.000;    0.000;21.00000
 918.28;  -13.000;  -99.000;    0.000;86.00000
 918.85;  -28.000;  -41.000;    0.000;13.00000
 919.41;  -40.000;  -44.000;    0.000; 4.00000
 919.97;   -7.000; -160.000;    0.000;153.00000
 920.53;   -5.000;  -17.000;    0.000;12.00000
 921.09;   -3.000;   -1.000;    0.000;-2.00000
 921.65;  -21.000;  -52.000;    0.000;31.00000
 922.21;  -43.000; -103.000;    0.000;60.00000
 922.77;  -62.000;  -82.000;    0.000;20.00000
 923.33;  -17.000;  -38.000;    0.000;21.00000
 923.89;  -22.000;  -72.000;    0.000;50.00000
 924.45;  -25.000;  -65.000;    0.000;40.00000
 925.01;  -34.000;  -45.000;    0.000;11.00000
 925.58;    6.000;  -94.000;    0.000;100.00000
 926.14;  -81.000;  -79.000;    0.000;-2.00000
 926.70;   26.000;  -93.000;    0.000;119.00000
 927.26;  -21.000;   18.000;    0.000;-39.00000
 927.82;   -6.000;  -50.000;    0.000;44.00000
 928.38;  -52.000;  -83.000;    0.000;31.00000
 928.94;   15.000;  -89.000;    0.000;104.00000
 929.50;  -22.000;  -18.000;    0.000;-4.00000
 930.06;    7.000; -128.000;    0.000;135.00000
 930.62;  -60.000; -109.000;    0.000;49.00000
 931.18;    1.000;  -17.000;    0.000;18.00000
 931.74;  -19.000;  -92.000;    0.000;73.00000
 932.30;  -64.000;  -18.000;    0.000;-46.00000
 932.86;  -27.000;  -88.000;    0.000;61.00000
 933.42;  -21.000;    2.000;    0.000;-23.00000
 933.98;  -36.000;    6.000;    0.000;-42.00000
 934.54;  -36.000;  -35.000;    0.000;-1.00000
 935.10;  -47.000;  -75.000;    0.000;28.00000
 935.66;  -18.000;  -85.000;    0.000;67.00000
 936.22;  -71.000;  -47.000;    0.000;-24.00000
 936.78;  -17.000; -124.000;    0.000;107.00000
 937.34;  -17.000;  -21.000;    0.000; 4.00000
 937.90;    6.000;  -85.000;    0.000;91.00000
 938.46;  -26.000; -102.000;    0.000;76.00000
 939.02;  -10.000;  -93.000;    0.000;83.00000
 939.58;  -29.000; -134.000;    0.000;105.00000
 940.14;   -5.000;  -80.000;    0.000;75.00000
 940.70;  -16.000;   98.000;    0.000;-114.00000
 941.25;  -58.000;  -36.000;    0.000;-22.00000
 941.81;  -26.000; -118.000;    0.000;92.00000
 942.37;  -39.000;   18.000;    0.000;-57.00000
 942.93;  -23.000; -100.000;    0.000;77.00000
 943.49;    9.000;  -44.000;    0.000;53.00000
 944.05;  -24.000;  -50.000;    0.000;26.00000
 944.61;  -70.000;  -26.000;    0.000;-44.00000
 945.17;   -6.000;  -33.000;    0.000;27.00000
 945.73;   40.000;  -81.000;    0.000;121.00000
 946.29;  -22.000;  -34.000;    0.000;12.00000
 946.85;   -9.000; -100.000;    0.000;91.00000
 947.40;   28.000; -119.000;    0.000;147.00000
 947.96;   -8.000;  -64.000;    0.000;56.00000
 948.52;  -69.000;  -72.000;    0.000; 3.00000
 949.08;  -16.000;  -38.000;    0.000;22.00000
 949.64; -101.000;   24.000;    0.000;-125.00000
 950.20;  -31.000;  -83.000;    0.000;52.00000
 950.76;  -17.000;  -72.000;    0.000;55.00000
 951.32;  -45.000;  -53.000;    0.000; 8.00000
 951.87;  -53.000;  -19.000;    0.000;-34.00000
 952.43;   31.000;   11.000;    0.000;20.00000
 952.99;  -16.000;   -7.000;    0.000;-9.00000
 953.55;  -17.000;  -85.000;    0.000;68.00000
 954.11;  -69.000; -112.000;    0.000;43.00000
 954.67;  -41.000;  -63.000;    0.000;22.00000
 955.22;  -51.000;  -70.000;    0.000;19.00000
 955.78;  -79.000;   79.000;    0.000;-158.00000
 956.34;  -13.000;  -22.000;    0.000; 9.00000
 956.90;  -23.000;  -85.000;    0.000;62.00000
 957.46;  -39.000;  -55.000;    0.000;16.00000
 958.01;  -10.000;    4.000;    0.000;-14.00000
 958.57;  -18.000;  -10.000;    0.000;-8.00000
 959.13;    7.000;  -48.000;    0.000;55.00000
 959.69;  -58.000;  -86.000;    0.000;28.00000
 960.25;  -60.000;  -41.000;    0.000;-19.00000
 960.80;  -78.000;  -22.000;    0.000;-56.00000
 961.36;  -58.000;  -36.000;    0.000;-22.00000
 961.92;  -75.000; -138.000;    0.000;63.00000
 962.48;   -4.000;  -84.000;    0.000;80.00000
 963.03;  -47.000;  -48.000;    0.000; 1.00000
 963.59;  -66.000;    6.000;    0.000;-72.00000
 964.15;  -52.000;  -28.000;    0.000;-24.00000
 964.71;  -10.000;  -42.000;    0.000;32.00000
 965.26;  -27.000;  -54.000;    0.000;27.00000
 965.82;  -74.000;  -19.000;    0.000;-55.00000
 966.38;  -10.000;  -65.000;    0.000;55.00000
 966.94;   -7.000; -117.000;    0.000;110.00000
 967.49;  -48.000; -107.000;    0.000;59.00000
 968.05;  -76.000;  -94.000;    0.000;18.00000
 968.61;  -50.000;   43.000;    0.000;-93.00000
 969.17;  -54.000;  -84.000;    0.000;30.00000
 969.72;  -94.000; -122.000;    0.000;28.00000
 970.28;  -25.000;   11.000;    0.000;-36.00000
 970.84;   13.000;  -71.000;    0.000;84.00000
 971.39;  -40.000;   14.000;    0.000;-54.00000
 971.95;  -10.000; -104.000;    0.000;94.00000
 972.51;  -16.000; -112.000;    0.000;96.00000
 973.06;  -49.000;  -20.000;    0.000;-29.00000
 973.62;  -22.000;  -33.000;    0.000;11.00000
 974.18;  -29.000;  -51.000;    0.000;22.00000
 974.73;  -76.000; -117.000;    0.000;41.00000
 975.29;  -55.000;   46.000;    0.000;-101.00000
 975.85;  -31.000;   33.000;    0.000;-64.00000
 976.40;  -42.000;   26.000;    0.000;-68.00000
 976.96;    9.000;  -93.000;    0.000;102.00000
 977.52;  -31.000;   22.000;    0.000;-53.00000
 978.07;  -48.000;  -92.000;    0.000;44.00000
 978.63;  -46.000;  -61.000;    0.000;15.00000
 979.19;  -34.000;  -96.000;    0.000;62.00000
 979.74;  -52.000;   16.000;    0.000;-68.00000
 980.30;   -8.000; -142.000;    0.000;134.00000
 980.85;  -19.000;    0.000;    0.000;-19.00000
 981.41;  -36.000;  -86.000;    0.000;50.00000
 981.97;  -60.000; -102.000;    0.000;42.00000
 982.52;  -21.000; -113.000;    0.000;92.00000
 983.08;  -19.000; -109.000;    0.000;90.00000
 983.63;    0.000;  -71.000;    0.000;71.00000
 984.19;  -37.000;  -33.000;    0.000;-4.00000
 984.75;  -33.000; -102.000;    0.000;69.00000
 985.30;  -35.000; -108.000;    0.000;73.00000
 985.86;    6.000;  -66.000;    0.000;72.00000
 986.41;  -55.000;  -77.000;    0.000;22.00000
 986.97;  -23.000;  -90.000;    0.000;67.00000
 987.52;  -35.000; -103.000;    0.000;68.00000
 988.08;  -24.000; -121.000;    0.000;97.00000
 988.64;  -52.000;  -87.000;    0.000;35.00000
 989.19;  -38.000; -112.000;    0.000;74.00000
 989.75;  -42.000;    7.000;    0.000;-49.00000
 990.30;  -16.000; -125.000;    0.000;109.00000
 990.86;  -51.000;  -60.000;    0.000; 9.00000
 991.41;  -47.000;  -89.000;    0.000;42.00000
 991.97;  -18.000;  -22.000;    0.000; 4.00000
 992.52;  -52.000; -114.000;    0.000;62.00000
 993.08;  -59.000; -114.000;    0.000;55.00000
 993.63;  -22.000;  -53.000;    0.000;31.00000
 994.19;    2.000;  -18.000;    0.000;20.00000
 994.74;  -16.000; -126.000;    0.000;110.00000
 995.30;  -17.000; -125.000;    0.000;108.00000
 995.85;   54.000;  -86.000;    0.000;140.00000
 996.41;  -74.000;  -72.000;    0.000;-2.00000
 996.96;  -60.000;   -2.000;    0.000;-58.00000
 997.52;  -25.000;   45.000;    0.000;-70.00000
 998.07;   -9.000;   -6.000;    0.000;-3.00000
 998.63;  -44.000;  -97.000;    0.000;53.00000
 999.18;  -38.000;  103.000;    0.000;-141.00000
 999.74;  -31.000;  -43.000;    0.000;12.00000
1000.29;  -37.000;  -49.000;    0.000;12.00000
1000.85;  -29.000;  -39.000;    0.000;10.00000
1001.40;  -39.000;  -30.000;    0.000;-9.00000
1001.96;  -96.000;  -96.000;    0.000; 0.00000
1002.51;   -2.000; -103.000;    0.000;101.00000
1003.06;  -51.000;  -94.000;    0.000;43.00000
1003.62;    9.000;   -1.000;    0.000;10.00000
1004.17;   -4.000; -111.000;    0.000;107.00000
1004.73;  -57.000;  -93.000;    0.000;36.00000
1005.28;   14.000;   77.000;    0.000;-63.00000
1005.83;    2.000;  -80.000;    0.000;82.00000
1006.39;  -16.000; -146.000;    0.000;130.00000
1006.94;   23.000; -103.000;    0.000;126.00000
1007.50;  -61.000;   28.000;    0.000;-89.00000
1008.05;  -86.000;  -47.000;    0.000;-39.00000
1008.60;  -56.000;  -88.000;    0.000;32.00000
1009.16;   21.000;  -50.000;    0.000;71.00000
1009.71;  -13.000;   21.000;    0.000;-34.00000
1010.27;  -37.000;  -89.000;    0.000;52.00000
1010.82;   22.000;  -97.000;    0.000;119.00000
1011.37;   -5.000;  -11.000;    0.000; 6.00000
1011.93;  -48.000;   13.000;    0.000;-61.00000
1012.48;  -39.000;  -61.000;    0.000;22.00000
1013.03;  -29.000;  -74.000;    0.000;45.00000
1013.59;  -38.000;  -16.000;    0.000;-22.00000
1014.14;  -35.000;  -69.000;    0.000;34.00000
1014.69;  -45.000; -129.000;    0.000;84.00000
1015.25;  -14.000;   66.000;    0.000;-80.00000
1015.80;  -53.000;  -14.000;    0.000;-39.00000
1016.35;  -12.000; -124.000;    0.000;112.00000
1016.91;  -28.000; -140.000;    0.000;112.00000
1017.46;  -43.000; -122.000;    0.000;79.00000
1018.01;  -12.000;  -42.000;    0.000;30.00000
1018.57;  -43.000; -115.000;    0.000;72.00000
1019.12;  -57.000; -101.000;    0.000;44.00000
1019.67;  -37.000;   10.000;    0.000;-47.00000
1020.23;  -36.000;  -22.000;    0.000;-14.00000
1020.78;  -35.000; -187.000;    0.000;152.00000
1021.33;  -28.000;  -89.000;    0.000;61.00000
1021.88;  -25.000;    4.000;    0.000;-29.00000
1022.44;  -35.000;   10.000;    0.000;-45.00000
1022.99;  -23.000;   -5.000;    0.000;-18.00000
1023.54;  -14.000;  -85.000;    0.000;71.00000
1024.09;   29.000;   38.000;    0.000;-9.00000
1024.65;  -15.000;  -53.000;    0.000;38.00000
1025.20;  -10.000; -105.000;    0.000;95.00000
1025.75;    0.000;  -42.000;    0.000;42.00000
1026.30;   22.000;  -44.000;    0.000;66.00000
1026.86;    2.000; -104.000;    0.000;106.00000
1027.41;   -2.000;  -48.000;    0.000;46.00000
1027.96;  -20.000;  -34.000;    0.000;14.00000
1028.51;  -59.000;   87.000;    0.000;-146.00000
1029.07;  -16.000;  -93.000;    0.000;77.00000
1029.62;  -44.000;  -70.000;    0.000;26.00000
1030.17;  -54.000;  -53.000;    0.000;-1.00000
1030.72;   -5.000;  -29.000;    0.000;24.00000
1031.27;  -12.000;  -72.000;    0.000;60.00000
1031.83;  -43.000;  -58.000;    0.000;15.00000
1032.38;   47.000;   24.000;    0.000;23.00000
1032.93;  -48.000;  -82.000;    0.000;34.00000
1033.48;   -7.000;  -48.000;    0.000;41.00000
1034.03;  -79.000; -100.000;    0.000;21.00000
1034.58;  -18.000;  -24.000;    0.000; 6.00000
1035.14;  -21.000; -128.000;    0.000;107.00000
1035.69;  -33.000; -126.000;    0.000;93.00000
1036.24;  -18.000;  -66.000;    0.000;48.00000
1036.79;  -46.000;  -77.000;    0.000;31.00000
1037.34;  -34.000; -100.000;    0.000;66.00000
1037.89;   -9.000;  -99.000;    0.000;90.00000
1038.45;  -27.000; -113.000;    0.000;86.00000
1039.00;  -54.000; -132.000;    0.000;78.00000
1039.55;  -48.000; -104.000;    0.000;56.00000
1040.10;  -52.000;  -57.000;    0.000; 5.00000
1040.65;  -43.000;  -95.000;    0.000;52.00000
1041.20;  -44.000; -102.000;    0.000;58.00000
1041.75;  -86.000;  -74.000;    0.000;-12.00000
1042.30;  -39.000;  -93.000;    0.000;54.00000
1042.85;  -47.000;  -56.000;    0.000; 9.00000
1043.41;  -14.000;  -25.000;    0.000;11.00000
1043.96;  -39.000; -123.000;    0.000;84.00000
1044.51;  -30.000;  -64.000;    0.000;34.00000
1045.06;  -22.000;   16.000;    0.000;-38.00000
1045.61;  -22.000; -109.000;    0.000;87.00000
1046.16;  -16.000;    6.000;    0.000;-22.00000
1046.71;    4.000;  -61.000;    0.000;65.00000
1047.26;  -16.000;  -70.000;    0.000;54.00000
1047.81;  -24.000; -145.000;    0.000;121.00000
1048.36;  -38.000; -112.000;    0.000;74.00000
1048.91;   67.000;  834.000;    0.000;-767.00000
1049.46;   -9.000;   60.000;    0.000;-69.00000
1050.01;  -53.000;  -50.000;    0.000;-3.00000
1050.56;    5.000;  -80.000;    0.000;85.00000
1051.11;  -34.000;    5.000;    0.000;-39.00000
1051.66;  -31.000;  -71.000;    0.000;40.00000
1052.21;   19.000;  -57.000;    0.000;76.00000
1052.76;  -59.000;  -13.000;    0.000;-46.00000
1053.31;  -50.000;  -89.000;    0.000;39.00000
1053.86;  -44.000;  -51.000;    0.000; 7.00000
1054.41;   38.000;  -71.000;    0.000;109.00000
1054.96;  -17.000;  -52.000;    0.000;35.00000
1055.51;   74.000;  156.000;    0.000;-82.00000
1056.06;  -30.000; -122.000;    0.000;92.00000
1056.61;    5.000;   17.000;    0.000;-12.00000
1057.16;  -10.000; -101.000;    0.000;91.00000
1057.71;  -11.000;  -79.000;    0.000;68.00000
1058.26;  -20.000; -128.000;    0.000;108.00000
1058.81;   -8.000;  -50.000;    0.000;42.00000
1059.36;  -80.000;  -99.000;    0.000;19.00000
1059.91;    6.000;  -12.000;    0.000;18.00000
1060.46;  -24.000;   -9.000;    0.000;-15.00000
1061.01;   -3.000;  -39.000;    0.000;36.00000
1061.56;  -19.000; -101.000;    0.000;82.00000
1062.11;  -29.000;  -77.000;    0.000;48.00000
1062.66;    4.000;  -80.000;    0.000;84.00000
1063.21;  -41.000; -132.000;    0.000;91.00000
1063.76;  -64.000;  -75.000;    0.000;11.00000
1064.31;  -52.000;  -42.000;    0.000;-10.00000
1064.86;  -59.000;  -86.000;    0.000;27.00000
1065.40;  -27.000;   29.000;    0.000;-56.00000
1065.95;  -91.000;  -38.000;    0.000;-53.00000
1066.50;  -35.000;  -91.000;    0.000;56.00000
1067.05;  -21.000;  -81.000;    0.000;60.00000
1067.60;  -24.000;  -70.000;    0.000;46.00000
1068.15;  -26.000;  -69.000;    0.000;43.00000
1068.70;   -8.000;  -92.000;    0.000;84.00000
1069.25;  -34.000;  -55.000;    0.000;21.00000
1069.79;  -35.000;  -90.000;    0.000;55.00000
1070.34;  -41.000; -115.000;    0.000;74.00000
1070.89;  -48.000; -102.000;    0.000;54.00000
1071.44;  -57.000;  -64.000;    0.000; 7.00000
1071.99;  -20.000;  153.000;    0.000;-173.00000
1072.54;  -78.000; -101.000;    0.000;23.00000
1073.09;  -33.000;  -97.000;    0.000;64.00000
1073.63;   37.000;  -27.000;    0.000;64.00000
1074.18;    1.000;  -73.000;    0.000;74.00000
1074.73;  -57.000;  -91.000;    0.000;34.00000
1075.28;  -12.000;   20.000;    0.000;-32.00000
1075.83;  -95.000;  -34.000;    0.000;-61.00000
1076.38;  -42.000;  -93.000;    0.000;51.00000
1076.92;  -92.000;  -76.000;    0.000;-16.00000
1077.47;   -9.000;  -37.000;    0.000;28.00000
1078.02;  -17.000;   34.000;    0.000;-51.00000
1078.57;  -58.000; -126.000;    0.000;68.00000
1079.11;  -60.000; -118.000;    0.000;58.00000
1079.66;  -13.000; -151.000;    0.000;138.00000
1080.21;  -11.000;  -38.000;    0.000;27.00000
1080.76;    9.000;  -56.000;    0.000;65.00000
1081.31;  -20.000;  -95.000;    0.000;75.00000
1081.85;  -39.000;  -58.000;    0.000;19.00000
1082.40;   -3.000;  -25.000;    0.000;22.00000
1082.95;    0.000;  -56.000;    0.000;56.00000
1083.50;  -28.000;  -72.000;    0.000;44.00000
1084.04;  -15.000;  -53.000;    0.000;38.00000
1084.59;  -28.000;  -57.000;    0.000;29.00000
1085.14;  -74.000; -150.000;    0.000;76.00000
1085.69;  -13.000;  -64.000;    0.000;51.00000
1086.23;  -63.000;  -29.000;    0.000;-34.00000
1086.78;  -90.000;    6.000;    0.000;-96.00000
1087.33;    7.000;   -2.000;    0.000; 9.00000
1087.87;  -54.000;  -71.000;    0.000;17.00000
1088.42;  -49.000;   17.000;    0.000;-66.00000
1088.97;  -34.000; -110.000;    0.000;76.00000
1089.52;  -80.000;  -48.000;    0.000;-32.00000
1090.06;  -53.000;  -91.000;    0.000;38.00000
1090.61;    8.000; -101.000;    0.000;109.00000
1091.16;  -39.000;  -51.000;    0.000;12.00000
1091.70;  -62.000;  -82.000;    0.000;20.00000
1092.25;  -67.000;  -46.000;    0.000;-21.00000
1092.80;  -41.000;  -45.000;    0.000; 4.00000
1093.34;  -31.000;  -64.000;    0.000;33.00000
1093.89;  -10.000;  -67.000;    0.000;57.00000
1094.44;  -14.000;  -15.000;    0.000; 1.00000
1094.98;  -18.000;   58.000;    0.000;-76.00000
1095.53;  -57.000;  -80.000;    0.000;23.00000
1096.07;  -30.000;  -25.000;    0.000;-5.00000
1096.62;  -30.000; -103.000;    0.000;73.00000
1097.17;  -48.000;   -5.000;    0.000;-43.00000
1097.71;   -4.000;  -69.000;    0.000;65.00000
1098.26;  -61.000; -117.000;    0.000;56.00000
1098.81;  -22.000;  -42.000;    0.000;20.00000
1099.35;  -42.000; -117.000;    0.000;75.00000
1099.90;  -71.000;  -30.000;    0.000;-41.00000
1100.44;  -25.000;  -82.000;    0.000;57.00000

