X-ray (ID 01) / Crystal angle θ_c	X-ray (ID 01) / Impulse Imp
θ_c/°	Imp/# / s

3.0	5997
3.1	4125
3.2	2776
3.3	1777
3.4	1434
3.5	1159
3.6	1039
3.7	890
3.8	774
3.9	603
4.0	532
4.1	424
4.2	328
4.3	275
4.4	254
4.5	221
4.6	178
4.7	154
4.8	154
4.9	149
5.0	133
5.1	119
5.2	113
5.3	118
5.4	105
5.5	101
5.6	106
5.7	106
5.8	105
5.9	107
6.0	114
6.1	108
6.2	113
6.3	94
6.4	129
6.5	107
6.6	109
6.7	119
6.8	129
6.9	115
7.0	129
7.1	126
7.2	125
7.3	132
7.4	122
7.5	119
7.6	111
7.7	117
7.8	124
7.9	116
8.0	113
8.1	134
8.2	193
8.3	228
8.4	239
8.5	244
8.6	238
8.7	233
8.8	241
8.9	232
9.0	245
9.1	262
9.2	264
9.3	245
9.4	235
9.5	239
9.6	233
9.7	247
9.8	236
9.9	220
10.0	223
10.1	234
10.2	225
10.3	227
10.4	232
10.5	216
10.6	216
10.7	209
10.8	219
10.9	204
11.0	207
11.1	201
11.2	210
11.3	191
11.4	198
11.5	206
11.6	192
11.7	193
11.8	203
11.9	186
12.0	256
12.1	489
12.2	1304
12.3	2288
12.4	1617
12.5	508
12.6	327
12.7	262
12.8	245
12.9	206
13.0	200
13.1	232
13.2	246
13.3	571
13.4	1142
13.5	4224
13.6	8614
13.7	6153
13.8	2135
13.9	618
14.0	377
14.1	203
14.2	158
14.3	158
14.4	153
14.5	149
14.6	131
14.7	129
14.8	129
14.9	113
15.0	123
15.1	122
15.2	117
15.3	119
15.4	116
15.5	111
15.6	114
15.7	108
15.8	104
15.9	99
16.0	107
16.1	86
16.2	91
16.3	93
16.4	102
16.5	110
16.6	92
16.7	96
16.8	104
16.9	86
17.0	88
17.1	97
17.2	92
17.3	93
17.4	96
17.5	84
17.6	102
17.7	88
17.8	87
17.9	86
18.0	83
18.1	85
18.2	78
18.3	92
18.4	87
18.5	90
18.6	78
18.7	74
18.8	85
18.9	78
19.0	80
19.1	84
19.2	83
19.3	81
19.4	88
19.5	81
19.6	79
19.7	69
19.8	70
19.9	68
20.0	66
20.1	80
20.2	64
20.3	69
20.4	73
20.5	62
20.6	70
20.7	68
20.8	64
20.9	79
21.0	65
21.1	74
21.2	69
21.3	63
21.4	63
21.5	74
21.6	61
21.7	74
21.8	69
21.9	74
22.0	74
22.1	63
22.2	66
22.3	65
22.4	65
22.5	63
22.6	56
22.7	56
22.8	67
22.9	49
23.0	60
23.1	70
23.2	59
23.3	62
23.4	55
23.5	63
23.6	57
23.7	64
23.8	53
23.9	63
24.0	69
24.1	55
24.2	63
24.3	57
24.4	58
24.5	80
24.6	73
24.7	85
24.8	115
24.9	248
25.0	569
25.1	482
25.2	177
25.3	85
25.4	91
25.5	87
25.6	80
25.7	71
25.8	66
25.9	75
26.0	63
26.1	68
26.2	74
26.3	68
26.4	63
26.5	70
26.6	74
26.7	68
26.8	61
26.9	71
27.0	76
27.1	68
27.2	69
27.3	85
27.4	96
27.5	120
27.6	155
27.7	265
27.8	900
27.9	2139
28.0	1711
28.1	490
28.2	159
28.3	107
28.4	101
28.5	83
28.6	71
28.7	62
28.8	70
28.9	62
29.0	66
29.1	56
29.2	61
29.3	62
29.4	63
29.5	65
29.6	61
29.7	55
29.8	64
29.9	68
30.0	63
30.1	67
30.2	53
30.3	48
30.4	55
30.5	49
30.6	55
30.7	60
30.8	60
30.9	58
31.0	52
31.1	56
31.2	57
31.3	56
31.4	58
31.5	46
31.6	52
31.7	59
31.8	65
31.9	58
32.0	48
32.1	59
32.2	57
32.3	57
32.4	63
32.5	61
32.6	48
32.7	55
32.8	50
32.9	50
33.0	52
33.1	49
33.2	52
33.3	50
33.4	59
33.5	51
33.6	53
33.7	53
33.8	51
33.9	60
34.0	45
34.1	49
34.2	52
34.3	55
34.4	50
34.5	50
34.6	59
34.7	48
34.8	44
34.9	60
35.0	49
35.1	54
35.2	52
35.3	62
35.4	56
35.5	49
35.6	47
35.7	69
35.8	54
35.9	52
36.0	52
36.1	53
36.2	49
36.3	52
36.4	49
36.5	50
36.6	46
36.7	56
36.8	46
36.9	53
37.0	55
37.1	50
37.2	65
37.3	58
37.4	61
37.5	65
37.6	57
37.7	56
37.8	51
37.9	52
38.0	51
38.1	48
38.2	51
38.3	52
38.4	49
38.5	54
38.6	49
38.7	49
38.8	54
38.9	64
39.0	65
39.1	70
39.2	112
39.3	198
39.4	159
39.5	64
39.6	51
39.7	57
39.8	53
39.9	51
40.0	50
40.1	61
40.2	50
40.3	56
40.4	52
40.5	50
40.6	50
40.7	54
40.8	49
40.9	57
41.0	49
41.1	46
41.2	54
41.3	53
41.4	49
41.5	44
41.6	57
41.7	54
41.8	53
41.9	58
42.0	42
42.1	52
42.2	61
42.3	49
42.4	59
42.5	54
42.6	50
42.7	56
42.8	51
42.9	46
43.0	52
43.1	56
43.2	49
43.3	55
43.4	57
43.5	55
43.6	52
43.7	61
43.8	60
43.9	66
44.0	64
44.1	68
44.2	92
44.3	133
44.4	317
44.5	621
44.6	527
44.7	259
44.8	98
44.9	77
45.0	65
45.1	57
45.2	55
45.3	56
45.4	63
45.5	49
45.6	53
45.7	56
45.8	54
45.9	58
46.0	61
46.1	50
46.2	44
46.3	47
46.4	53
46.5	56
46.6	49
46.7	53
46.8	44
46.9	53
47.0	53
47.1	48
47.2	59
47.3	44
47.4	51
47.5	40
47.6	56
47.7	59
47.8	43
47.9	58
48.0	51
48.1	54
48.2	55
48.3	45
48.4	56
48.5	56
48.6	42
48.7	42
48.8	51
48.9	56
49.0	46
49.1	53
49.2	48
49.3	56
49.4	57
49.5	52
49.6	45
49.7	46
49.8	55
49.9	47
50.0	50
50.1	45
50.2	53
50.3	58
50.4	43
50.5	46
50.6	57
50.7	57
50.8	54
50.9	50
51.0	49
51.1	47
51.2	34
51.3	36
51.4	50
51.5	48
51.6	52
51.7	52
51.8	51
51.9	50
52.0	52
52.1	52
52.2	45
52.3	48
52.4	45
52.5	48
52.6	46
52.7	53
52.8	56
52.9	46
53.0	43
53.1	61
53.2	46
53.3	48
53.4	49
53.5	48
53.6	52
53.7	47
53.8	50
53.9	56
54.0	43
54.1	40
54.2	55
54.3	48
54.4	53
54.5	51
54.6	44
54.7	51
54.8	51
54.9	46
55.0	49
55.1	48
55.2	46
55.3	60
55.4	52
55.5	45
55.6	45
55.7	54
55.8	45
55.9	48
56.0	55
56.1	52
56.2	50
56.3	52
56.4	40
56.5	48
56.6	47
56.7	50
56.8	50
56.9	59
57.0	55
57.1	58
57.2	56
57.3	53
57.4	75
57.5	104
57.6	95
57.7	58
57.8	60
57.9	50
58.0	52
58.1	54
58.2	50
58.3	51
58.4	55
58.5	51
58.6	64
58.7	45
58.8	48
58.9	45
59.0	55
59.1	52
59.2	51
59.3	51
59.4	55
59.5	55
59.6	53
59.7	48
59.8	49
59.9	54
60.0	54
60.1	54
60.2	48
60.3	53
60.4	46
60.5	55
60.6	43
60.7	48
60.8	49
60.9	44
61.0	47
61.1	43
61.2	50
61.3	54
61.4	54
61.5	57
61.6	49
61.7	53
61.8	61
61.9	48
62.0	53
62.1	52
62.2	60
62.3	54
62.4	51
62.5	54
62.6	48
62.7	51
62.8	49
62.9	54
63.0	49
63.1	51
63.2	54
63.3	47
63.4	55
63.5	48
63.6	54
63.7	43
63.8	57
63.9	46
64.0	48
64.1	43
64.2	53
64.3	47
64.4	47
64.5	54
64.6	41
64.7	47
64.8	44
64.9	55
65.0	51
65.1	51
65.2	56
65.3	50
65.4	58
65.5	41
65.6	50
65.7	53
65.8	48
65.9	54
66.0	52
66.1	45
66.2	42
66.3	54
66.4	56
66.5	43
66.6	53
66.7	45
66.8	51
66.9	52
67.0	55
67.1	52
67.2	60
67.3	51
67.4	56
67.5	61
67.6	58
67.7	54
67.8	52
67.9	50
68.0	70
68.1	62
68.2	52
68.3	64
68.4	61
68.5	66
68.6	99
68.7	193
68.8	347
68.9	285
69.0	154
69.1	160
69.2	249
69.3	177
69.4	95
69.5	68
69.6	63
69.7	60
69.8	76
69.9	54
70.0	55
70.1	64
70.2	67
70.3	47
70.4	57
70.5	58
70.6	51
70.7	53
70.8	57
70.9	53
71.0	54
71.1	51
71.2	44
71.3	50
71.4	45
71.5	43
71.6	52
71.7	54
71.8	53
71.9	63
72.0	56
72.1	49
72.2	56
72.3	49
72.4	57
72.5	63
72.6	58
72.7	62
72.8	57
72.9	57
73.0	60
73.1	56
73.2	43
73.3	49
73.4	47
73.5	46
73.6	58
73.7	43
73.8	64
73.9	55
74.0	46
74.1	47
74.2	59
74.3	56
74.4	46
74.5	51
74.6	55
74.7	61
74.8	55
74.9	49
75.0	59
