filter-100ms-full-range
Integration time [ms]: 100.000
Averaging Nr. [scans]: 1
Smoothing Nr. [pixels]: 0
Data measured with spectrometer [name]: 1701237U1
Wave   ;Sample   ;Dark     ;Reference
[nm]   ;[counts] ;[counts] ;[counts] 

173.876;   50.812;    7.002;    0.000
174.482;  -17.122;    9.001;    0.000
175.087;  -12.045;   12.001;    0.000
175.693;  -16.119;   34.001;    0.000
176.298;   35.805;   10.002;    0.000
176.903;  -65.067;  -11.999;    0.000
177.509;    3.959;   19.000;    0.000
178.114;  -14.139;   -1.998;    0.000
178.719;   58.923;    3.001;    0.000
179.325;  -12.161;   -6.998;    0.000
179.930;   -4.153;  -51.998;    0.000
180.535;   29.956;  -13.999;    0.000
181.140;   39.809;   13.002;    0.000
181.745;    0.945;    4.001;    0.000
182.351;   52.960;   15.000;    0.000
182.956;  -10.084;   14.001;    0.000
183.561;   59.796;  -12.998;    0.000
184.166;  -12.112;   43.001;    0.000
184.771;   22.958;    2.000;    0.000
185.376;  -24.125;   -1.999;    0.000
185.981;   63.869;  -26.998;    0.000
186.586;   -6.076;    6.001;    0.000
187.191;   32.895;  -27.999;    0.000
187.796;  -47.178;   37.002;    0.000
188.400;   18.731;   19.003;    0.000
189.005;   19.869;  -54.998;    0.000
189.610;    9.915;   19.001;    0.000
190.215;   15.820;  -31.998;    0.000
190.820;   40.841;   -6.998;    0.000
191.424;  -11.203;  -27.998;    0.000
192.029;   56.786;  -12.997;    0.000
192.634;  -41.241;  -13.997;    0.000
193.238;    6.940;  -57.999;    0.000
193.843;  -58.290;    9.003;    0.000
194.448;   12.756;    4.003;    0.000
195.052;    9.840;   16.002;    0.000
195.657;    1.775;  -14.997;    0.000
196.261;  -39.299;   19.004;    0.000
196.866;  -16.263;  -24.997;    0.000
197.470;    5.786;   20.003;    0.000
198.075;   43.709;  -67.997;    0.000
198.679;   -5.308;  -26.996;    0.000
199.284;   40.820;   22.002;    0.000
199.888;   13.617;   36.005;    0.000
200.492;   43.707;    2.003;    0.000
201.097;  -46.228;   40.003;    0.000
201.701;   67.685;   13.004;    0.000
202.305;   33.862;    5.002;    0.000
202.909;   73.859;  -17.998;    0.000
203.514;  -64.233;   23.003;    0.000
204.118;   55.967;    0.000;    0.000
204.722;   51.916;   99.001;    0.000
205.326;   51.862;  -12.998;    0.000
205.930;  -11.171;    7.002;    0.000
206.534;   26.809;   -5.998;    0.000
207.138;  -40.184;   42.002;    0.000
207.742;   42.826;   10.002;    0.000
208.346;  -26.216;   18.003;    0.000
208.950;   -3.181;   16.002;    0.000
209.554;  -29.184;   55.002;    0.000
210.158;    2.785;  -36.997;    0.000
210.762;   14.797;   -6.998;    0.000
211.366;   31.805;   23.002;    0.000
211.970;  -20.126;  -29.998;    0.000
212.574;   89.716;  -21.997;    0.000
213.177;   28.772;  -15.997;    0.000
213.781;   33.743;  -12.997;    0.000
214.385;   39.821;   10.002;    0.000
214.989;   10.772;  -18.997;    0.000
215.592;  -15.269;  -24.997;    0.000
216.196;   12.705;  -25.996;    0.000
216.800;  -29.279;    2.003;    0.000
217.403;   66.784;   25.003;    0.000
218.007;  -79.313;   17.004;    0.000
218.610;   64.748;  -27.997;    0.000
219.214;  -14.182;  -24.998;    0.000
219.817;   29.808;  -10.998;    0.000
220.421;   -1.200;   41.002;    0.000
221.024;   -9.369;   33.004;    0.000
221.628;  -14.402;  -11.995;    0.000
222.231;   43.731;  -29.997;    0.000
222.834;   -5.202;  -18.998;    0.000
223.438;    7.862;   21.002;    0.000
224.041;  -43.406;    1.005;    0.000
224.644;   65.698;  -43.996;    0.000
225.248;   15.803;   -6.998;    0.000
225.851;   -8.156;  -28.998;    0.000
226.454;  -38.270;  -44.997;    0.000
227.057;   30.774;   -6.997;    0.000
227.660;   60.812;   40.002;    0.000
228.263;   10.753;   -6.997;    0.000
228.866;  -36.251;    4.003;    0.000
229.470;   11.787;   -3.997;    0.000
230.073;  -17.266;   -4.997;    0.000
230.676;   14.878;    6.001;    0.000
231.279;   -9.284;   -4.997;    0.000
231.882;   74.743;   -9.997;    0.000
232.484;  -74.143;   -1.998;    0.000
233.087;   45.836;   60.002;    0.000
233.690;  -31.207;  -26.998;    0.000
234.293;   67.798;   -5.998;    0.000
234.896;   -9.279;   -6.997;    0.000
235.499;   65.586;   23.005;    0.000
236.101;  -37.195;  -43.998;    0.000
236.704;   58.735;   33.003;    0.000
237.307;    5.709;  -20.997;    0.000
237.910;   31.719;   25.003;    0.000
238.512;  -13.166;   -7.998;    0.000
239.115;   35.985;  -14.000;    0.000
239.717;   -1.318;    3.004;    0.000
240.320;   25.901;    0.001;    0.000
240.923;   29.734;    3.003;    0.000
241.525;   47.684;   26.004;    0.000
242.128;   -8.235;   -2.997;    0.000
242.730;   63.808;   56.002;    0.000
243.332;   -5.064;  -13.999;    0.000
243.935;  -10.282;  -13.997;    0.000
244.537;   35.787;  -16.997;    0.000
245.140;   52.767;  -14.997;    0.000
245.742;  -62.272;    0.003;    0.000
246.344;  -12.252;    3.003;    0.000
246.946;  -15.294;  -48.996;    0.000
247.549;   50.746;  -11.997;    0.000
248.151;  -42.356;   -6.996;    0.000
248.753;  -14.182;   -5.998;    0.000
249.355;   -8.353;   -1.996;    0.000
249.957;   76.838;  -15.998;    0.000
250.559;   30.746;   44.003;    0.000
251.161;   21.805;  -34.998;    0.000
251.764;  -33.243;   -6.997;    0.000
252.366;   30.828;   33.002;    0.000
252.968;  -40.233;  -25.997;    0.000
253.570;  -20.213;    4.003;    0.000
254.171;  -59.287;  -94.997;    0.000
254.773;   17.824;   33.002;    0.000
255.375;  -19.289;   21.003;    0.000
255.977;   66.923;   51.001;    0.000
256.579;    7.825;   48.002;    0.000
257.181;  -21.231;  -20.997;    0.000
257.782;   22.779;    3.003;    0.000
258.384;   46.784;    3.003;    0.000
258.986;   10.854;   34.002;    0.000
259.588;   24.804;    8.002;    0.000
260.189;  -25.264;  -25.997;    0.000
260.791;   47.743;  -19.997;    0.000
261.392;    0.712;   10.003;    0.000
261.994;    9.698;   25.004;    0.000
262.596;  -20.285;  -13.997;    0.000
263.197;   53.865;  -30.998;    0.000
263.799;   -6.390;  -29.995;    0.000
264.400;   34.752;  -44.997;    0.000
265.002;  -47.217;    9.003;    0.000
265.603;   -3.195;  -50.998;    0.000
266.204;  -67.165;  -20.998;    0.000
266.806;   29.799;  -18.998;    0.000
267.407;   -3.276;  -47.997;    0.000
268.008;    6.843;   15.002;    0.000
268.610;  -22.285;    9.003;    0.000
269.211;   46.704;   -5.996;    0.000
269.812;  -43.131;    1.002;    0.000
270.413;   14.787;  -25.997;    0.000
271.014;  -13.260;  -27.997;    0.000
271.615;   65.853;  -32.998;    0.000
272.217;  -37.169;    5.002;    0.000
272.818;   26.753;   19.003;    0.000
273.419;  -33.239;  -18.997;    0.000
274.020;   61.802;  -29.998;    0.000
274.621;    6.673;  -41.996;    0.000
275.222;   31.837;   15.002;    0.000
275.823;   22.720;  -25.997;    0.000
276.423;   53.726;   -0.997;    0.000
277.024;   38.840;   43.002;    0.000
277.625;   25.741;  -34.997;    0.000
278.226;  -16.258;  -19.997;    0.000
278.827;   45.711;   11.003;    0.000
279.427;    0.721;  -11.997;    0.000
280.028;   29.914;   -7.999;    0.000
280.629;   26.761;   29.003;    0.000
281.230;   50.770;  -11.997;    0.000
281.830;  -41.321;  -59.996;    0.000
282.431;  314.760;  218.003;    0.000
283.031;  -59.206;   10.002;    0.000
283.632;   31.744;   47.003;    0.000
284.233;  -29.292;  -33.997;    0.000
284.833;   65.702;    2.004;    0.000
285.434;  -25.208;  -68.998;    0.000
286.034;   16.877;   -0.999;    0.000
286.634;   -2.257;   14.003;    0.000
287.235;    3.788;  -32.997;    0.000
287.835;  -25.173;  -26.998;    0.000
288.435;   33.808;  -13.998;    0.000
289.036;  -34.144;    0.002;    0.000
289.636;   19.810;   13.002;    0.000
290.236;    7.569;    4.005;    0.000
290.837;   63.945;  -36.999;    0.000
291.437;  -39.135;   11.002;    0.000
292.037;   15.911;   -7.999;    0.000
292.637;   -8.176;  -38.998;    0.000
293.237;   38.870;  -23.998;    0.000
293.837;   13.733;   50.003;    0.000
294.437;   66.745;    0.003;    0.000
295.037;  -26.177;  -27.998;    0.000
295.637;   20.896;  -28.999;    0.000
296.237;   20.891;    6.001;    0.000
296.837;   41.856;   15.002;    0.000
297.437;  -13.217;   56.003;    0.000
298.037;   53.947;   -7.999;    0.000
298.637;   -4.116;  -19.999;    0.000
299.237;   38.754;  -10.997;    0.000
299.836;  -61.117;  -27.999;    0.000
300.436;    1.815;   -7.998;    0.000
301.036;  -15.072;   -9.999;    0.000
301.636;   24.739;  -19.997;    0.000
302.235;  -51.222;  -20.997;    0.000
302.835;   17.939;  -59.999;    0.000
303.434;  -23.248;  -13.997;    0.000
304.034;   10.691;  -12.996;    0.000
304.634;  -26.160;  -21.998;    0.000
305.233;   80.816;    0.002;    0.000
305.833;   14.796;    6.002;    0.000
306.432;   54.792;  -40.998;    0.000
307.032;  -11.253;    6.003;    0.000
307.631;   41.798;   25.002;    0.000
308.230;   -2.242;  -23.997;    0.000
308.830;   13.738;  -42.997;    0.000
309.429;  -19.329;  -49.996;    0.000
310.028;   40.656;  -40.996;    0.000
310.628;  -27.293;   -8.997;    0.000
311.227;   45.648;   18.004;    0.000
311.826;  -15.212;   -8.997;    0.000
312.425;   28.855;  -14.998;    0.000
313.024;  -10.274;   -3.997;    0.000
313.623;   14.812;  -31.998;    0.000
314.223;  -39.222;   31.003;    0.000
314.822;   46.719;  -35.997;    0.000
315.421;  -36.339;   11.004;    0.000
316.020;   45.711;   30.003;    0.000
316.619;   10.613;  -29.995;    0.000
317.218;  -29.350;   12.004;    0.000
317.816;  -49.317;  -53.996;    0.000
318.415;   60.810;    6.002;    0.000
319.014;   -5.326;  -18.996;    0.000
319.613;   51.648;   21.004;    0.000
320.212;  -29.320;   54.004;    0.000
320.811;   15.548;    3.005;    0.000
321.409;  -18.204;   -8.998;    0.000
322.008;   -6.285;   -4.997;    0.000
322.607;  -16.410;  -56.995;    0.000
323.205;   -6.342;  -28.996;    0.000
323.804;   -0.327;   -9.996;    0.000
324.403;   37.500;  -27.994;    0.000
325.001;  -53.425;    4.005;    0.000
325.600;   96.584;   30.005;    0.000
326.198;  -45.376;  -29.996;    0.000
326.797;   66.569;  -44.995;    0.000
327.395;  -25.522;  -17.994;    0.000
327.994;  -12.641;  -27.992;    0.000
328.592;  -20.670;   -8.992;    0.000
329.190;   89.261;   49.009;    0.000
329.789;    6.274;  -13.991;    0.000
330.387;   53.231;    3.009;    0.000
330.985;  -42.729;  -11.991;    0.000
331.583;   66.166;  -39.990;    0.000
332.182;  -65.932;   17.011;    0.000
332.780;   41.041;    7.011;    0.000
333.378;  -20.069;  -23.987;    0.000
333.976;  -11.002;   -9.988;    0.000
334.574;   -8.052;  -65.987;    0.000
335.172;   71.007;  -70.988;    0.000
335.770;   -1.945;   -3.989;    0.000
336.368;    7.955;   36.012;    0.000
336.966;   20.138;   13.010;    0.000
337.564;   18.088;  -40.989;    0.000
338.162;   -2.870;   51.010;    0.000
338.760;    3.305;  -15.992;    0.000
339.358;  -34.780;  -33.991;    0.000
339.956;   -7.740;  -12.991;    0.000
340.554;  -59.730;  -23.991;    0.000
341.151;   65.257;   26.009;    0.000
341.749;    3.152;  -11.990;    0.000
342.347;   19.146;  -28.990;    0.000
342.944;  -65.069;  -21.987;    0.000
343.542;  -13.909;  -27.989;    0.000
344.140;  -25.926;  -42.989;    0.000
344.737;   12.001;  -33.988;    0.000
345.335;  -30.876;   26.010;    0.000
345.932;   -7.873;   -4.990;    0.000
346.530;  -27.778;   -7.991;    0.000
347.127;   27.181;   -4.990;    0.000
347.725;   -0.942;   41.011;    0.000
348.322;   -4.798;    5.010;    0.000
348.920;   17.150;   18.010;    0.000
349.517;   72.123;   46.010;    0.000
350.114;  -22.890;  -47.989;    0.000
350.712;    4.189;  -80.990;    0.000
351.309;  -52.773;  -12.991;    0.000
351.906;   47.218;  -18.991;    0.000
352.503;  -54.794;   -6.991;    0.000
353.100;   29.184;   -7.990;    0.000
353.698;  -18.693;    4.008;    0.000
354.295;   72.173;   40.010;    0.000
354.892;  -34.932;   -4.989;    0.000
355.489;   19.284;  -60.991;    0.000
356.086;    8.100;   20.011;    0.000
356.683;   73.211;  -27.991;    0.000
357.280;  -24.957;    6.011;    0.000
357.877;   63.065;    0.011;    0.000
358.474;  -74.839;  -25.990;    0.000
359.070;   30.212;  -33.991;    0.000
359.667;  -41.805;  -17.990;    0.000
360.264;   -5.817;   17.010;    0.000
360.861;  -34.884;   -9.989;    0.000
361.458;    7.287;  -22.992;    0.000
362.054;  -39.880;  -42.990;    0.000
362.651;   47.276;   19.009;    0.000
363.248;  -31.725;   13.009;    0.000
363.844;   13.285;  -34.991;    0.000
364.441;    1.228;  -22.991;    0.000
365.037;   14.217;    1.009;    0.000
365.634;  -80.760;  -45.991;    0.000
366.230;   54.289;  -28.992;    0.000
366.827;  -51.759;    9.009;    0.000
367.423;   45.161;  -26.990;    0.000
368.020;  -69.764;   -8.991;    0.000
368.616;   34.144;   -8.990;    0.000
369.213;   10.158;   40.010;    0.000
369.809;   88.177;    7.010;    0.000
370.405;  -93.619;  -42.993;    0.000
371.001;   11.060;   36.011;    0.000
371.598;  -49.905;   22.011;    0.000
372.194;   57.182;  -19.990;    0.000
372.790;  -44.699;  -41.992;    0.000
373.386;   43.249;  -20.991;    0.000
373.982;  -30.856;    0.010;    0.000
374.578;   53.214;  -40.991;    0.000
375.174;   -7.992;  -35.988;    0.000
375.770;   18.139;  -38.990;    0.000
376.366;  -82.874;  -27.990;    0.000
376.962;   49.141;    4.010;    0.000
377.558;    0.230;  -25.991;    0.000
378.154;   90.209;  -67.991;    0.000
378.750;   -3.865;  -24.990;    0.000
379.346;   43.155;  -25.990;    0.000
379.942;  -51.892;   12.011;    0.000
380.537;   18.074;   35.011;    0.000
381.133;  -53.866;  -51.990;    0.000
381.729;   -5.718;  -65.991;    0.000
382.325;   -6.659;   33.008;    0.000
382.920;  -13.849;   16.010;    0.000
383.516;   34.209;  -21.991;    0.000
384.111;   13.148;  -27.990;    0.000
384.707;  -11.930;  -50.989;    0.000
385.302;   31.101;  -18.989;    0.000
385.898;  -49.842;   18.010;    0.000
386.493;   25.085;  -22.989;    0.000
387.089;   -5.948;   36.011;    0.000
387.684;   34.189;   13.010;    0.000
388.280;  -14.819;  -40.990;    0.000
388.875;   75.294;   -6.992;    0.000
389.470;  -41.918;  -28.989;    0.000
390.066;   -2.848;   -7.990;    0.000
390.661;   -7.781;   31.009;    0.000
391.256;    3.109;    0.011;    0.000
391.851;  -36.859;  -20.990;    0.000
392.446;   23.122;    4.010;    0.000
393.041;  -27.748;    0.009;    0.000
393.637;   42.214;  -11.991;    0.000
394.232;  -36.841;   10.010;    0.000
394.827;   46.214;    2.009;    0.000
395.422;  -26.979;    2.012;    0.000
396.017;   56.237;   56.009;    0.000
396.612;  -57.940;   48.011;    0.000
397.206;   68.154;  -46.990;    0.000
397.801; 1036.176; 1129.010;    0.000
398.396;   49.156;   43.010;    0.000
398.991;  -10.839;   -5.990;    0.000
399.586;    1.087;    8.011;    0.000
400.180;  -24.828;  -22.990;    0.000
400.775;   20.185;   23.010;    0.000
401.370;  -57.712;   -9.992;    0.000
401.965;  -26.874;  -34.990;    0.000
402.559;   14.185;  -13.990;    0.000
403.154;   12.176;  -20.990;    0.000
403.748;  -82.751;  -37.991;    0.000
404.343;  101.136;  -24.990;    0.000
404.937;  -55.845;  -44.990;    0.000
405.532;   31.115;   -4.989;    0.000
406.126;  -10.903;  -11.989;    0.000
406.721;   29.268;   -0.991;    0.000
407.315;  -69.841;  -49.990;    0.000
407.909;   34.186;  -41.990;    0.000
408.504;    1.319;  -17.992;    0.000
409.098;   71.187;  -41.990;    0.000
409.692;   26.257;  -21.991;    0.000
410.286;   21.238;  -12.991;    0.000
410.881;  -21.807;   -6.990;    0.000
411.475;   35.245;   -8.991;    0.000
412.069;  -60.757;   23.009;    0.000
412.663;   21.237;  -34.991;    0.000
413.257;  -43.722;   50.009;    0.000
413.851;   73.293;  -22.992;    0.000
414.445;   -6.801;  -17.990;    0.000
415.039;   22.285;  -11.991;    0.000
415.633;  -39.802;  -18.990;    0.000
416.227;   34.197;  -26.990;    0.000
416.821;  -41.831;  -32.990;    0.000
417.415;   27.331;  -14.992;    0.000
418.008;  -57.783;  -19.991;    0.000
418.602;   -1.839;  -70.990;    0.000
419.196;  -53.753;   11.009;    0.000
419.790;   29.292;  -43.992;    0.000
420.383;  -16.739;  -30.991;    0.000
420.977;   19.294;    2.008;    0.000
421.571;  -45.768;  -26.991;    0.000
422.164;   45.339;   20.008;    0.000
422.758;   -1.653;  -35.992;    0.000
423.351;   16.266;   -2.991;    0.000
423.945;  -36.670;    7.008;    0.000
424.538;   81.364;    9.008;    0.000
425.132;  -19.793;  -19.991;    0.000
425.725;   27.305;  -19.992;    0.000
426.318;  -54.740;   49.009;    0.000
426.912;   46.372;   -9.993;    0.000
427.505;  -21.594;   35.007;    0.000
428.098;   34.341;   38.008;    0.000
428.692;  -16.665;   52.008;    0.000
429.285;   19.212;  -20.991;    0.000
429.878;  -21.722;   -4.991;    0.000
430.471;   27.401;  -39.993;    0.000
431.064;  -21.660;   -6.992;    0.000
431.657;  -43.628;  -29.993;    0.000
432.250;  -40.659;   22.008;    0.000
432.843;   -0.574;  -71.993;    0.000
433.436;    7.266;    0.009;    0.000
434.029;   17.420;  -62.993;    0.000
434.622;  -74.654;  -18.992;    0.000
435.215;   34.522;    9.006;    0.000
435.808;  -84.625;  -77.993;    0.000
436.401;   26.451;    0.007;    0.000
436.994;  -43.652;    7.008;    0.000
437.586;   27.376;  -50.993;    0.000
438.179;  -29.563;  -26.993;    0.000
438.772;   24.452;   23.007;    0.000
439.364;  -21.647;  -27.992;    0.000
439.957;   50.511;   -1.994;    0.000
440.550;  -68.600;  -40.993;    0.000
441.142;   -4.553;   31.007;    0.000
441.735; -104.738;    2.009;    0.000
442.327;   25.322;   -7.992;    0.000
442.920;   10.485;  -22.994;    0.000
443.512;   36.398;   20.007;    0.000
444.104;  -44.640;  -37.992;    0.000
444.697;   66.491;  -18.994;    0.000
445.289;  -73.676;   -5.992;    0.000
445.881;   41.378;    9.007;    0.000
446.474;    9.492;  -61.994;    0.000
447.066;  -17.534;  -28.994;    0.000
447.658;  -51.640;    9.008;    0.000
448.250;   13.436;  -30.993;    0.000
448.843;    8.419;  -52.993;    0.000
449.435;  -24.434;  -18.995;    0.000
450.027;  -35.718;   26.009;    0.000
450.619;   32.346;  -36.992;    0.000
451.211;  -57.686;  -10.992;    0.000
451.803;   -7.572;  -15.993;    0.000
452.395;  -24.532;  -10.994;    0.000
452.987;   44.513;  -16.994;    0.000
453.579;  -30.504;  -39.994;    0.000
454.170;   49.610;  -56.995;    0.000
454.762;  -60.444;   20.005;    0.000
455.354;   50.506;    3.006;    0.000
455.946;  -40.570;   -9.993;    0.000
456.537;   11.560;  -17.995;    0.000
457.129;    8.444;   -5.993;    0.000
457.721;   24.597;    8.005;    0.000
458.312;  -19.425;  -13.995;    0.000
458.904;  -13.534;  -36.994;    0.000
459.496;  -46.558;   19.007;    0.000
460.087;   52.405;  -50.993;    0.000
460.679;  -24.513;  -11.994;    0.000
461.270;   -3.533;   15.006;    0.000
461.862;  -27.482;  -39.994;    0.000
462.453;    3.697;   20.004;    0.000
463.044;  -60.546;  -12.994;    0.000
463.636;   16.636;   12.004;    0.000
464.227;   -4.525;   20.006;    0.000
464.818;   36.529;  -13.994;    0.000
465.409;  -54.298;  -13.996;    0.000
466.001;   18.532;  -25.994;    0.000
466.592;  -60.332;  -11.996;    0.000
467.183;   22.625;  -17.996;    0.000
467.774;    9.560;   -0.995;    0.000
468.365;   27.469;  -20.994;    0.000
468.956;  -47.533;  -14.994;    0.000
469.547;   60.522;  -57.994;    0.000
470.138;  -15.526;  -46.994;    0.000
470.729;   19.422;   30.007;    0.000
471.320;  -38.442;    4.005;    0.000
471.911;   46.588;  -26.995;    0.000
472.502;   11.404;  -20.993;    0.000
473.092;   44.669;  -28.996;    0.000
473.683;   11.429;  -12.993;    0.000
474.274;   41.643;   -3.996;    0.000
474.865;  -49.462;  -26.994;    0.000
475.455;  -11.401;    8.005;    0.000
476.046;  -22.405;   48.005;    0.000
476.637;  -11.386;  -19.995;    0.000
477.227;   -1.440;   -7.995;    0.000
477.818;   23.597;   -2.995;    0.000
478.408;  -56.400;   -5.995;    0.000
478.999;   61.562;  -53.995;    0.000
479.589;  -38.508;   -9.994;    0.000
480.180;   39.641;   -3.996;    0.000
480.770;  -10.364;  -42.996;    0.000
481.360;   80.639;  -40.996;    0.000
481.951;  -43.449;  -16.995;    0.000
482.541;    9.458;    1.006;    0.000
483.131;  -10.459;   -1.995;    0.000
483.721;  -28.335;  -16.996;    0.000
484.312;  -52.395;   26.005;    0.000
484.902;  -13.381;   12.005;    0.000
485.492;  -61.279;    9.003;    0.000
486.082;   17.658;  -32.996;    0.000
486.672;   11.691;   18.004;    0.000
487.262;    2.683;   -0.996;    0.000
487.852;  -39.388;   26.005;    0.000
488.442;   31.542;   27.005;    0.000
489.032;    6.643;   56.004;    0.000
489.622;   50.688;  -14.996;    0.000
490.212;  -23.368;   40.004;    0.000
490.801;   82.679;  -74.996;    0.000
491.391;  -18.369;   -5.996;    0.000
491.981;   43.665;  -49.996;    0.000
492.571;   -3.258;  -20.997;    0.000
493.160;   24.576;  -65.995;    0.000
493.750;   -1.416;  -24.995;    0.000
494.340;   13.611;  -34.995;    0.000
494.929;   45.712;   19.003;    0.000
495.519;   52.576;   24.005;    0.000
496.108;   23.591;  -22.995;    0.000
496.698;   83.482;   -3.994;    0.000
497.287;  -19.399;   19.005;    0.000
497.876;   79.636;   -1.996;    0.000
498.466;   -0.353;   10.004;    0.000
499.055;   54.577;  -66.995;    0.000
499.645;   -8.337;  -49.996;    0.000
500.234;   60.608;   -5.995;    0.000
500.823;   11.622;  -50.996;    0.000
501.412;   80.539;  -22.995;    0.000
502.001;  -37.418;  -44.995;    0.000
502.591;   94.632;   -4.996;    0.000
503.180;  -46.384;    7.005;    0.000
503.769;   44.617;  -34.995;    0.000
504.358;  -22.360;    7.004;    0.000
504.947;   31.626;  -17.996;    0.000
505.536;  -23.396;   -5.995;    0.000
506.125;   73.619;  -31.995;    0.000
506.714;  -16.380;  -26.995;    0.000
507.303;   41.520;  -17.994;    0.000
507.891;    7.522;   17.006;    0.000
508.480;   78.653;    3.004;    0.000
509.069;   12.477;  -43.994;    0.000
509.658;   50.664;   39.004;    0.000
510.246;   30.529;    7.006;    0.000
510.835;   16.580;  -28.995;    0.000
511.424;   -5.386;  -61.995;    0.000
512.012;   22.800;  -17.998;    0.000
512.601;   14.588;   48.005;    0.000
513.189;  131.576;  -11.995;    0.000
513.778;   -4.443;  -19.995;    0.000
514.366;   75.665;    7.004;    0.000
514.955;   24.728;   -6.997;    0.000
515.543;   57.636;   26.004;    0.000
516.132;  -36.412;  -13.995;    0.000
516.720;   86.655;   30.004;    0.000
517.308;   85.664;  -23.996;    0.000
517.896;   46.684;  -30.996;    0.000
518.485;   -9.352;    7.004;    0.000
519.073;  172.567;  -60.995;    0.000
519.661;   42.705;    7.004;    0.000
520.249;  113.679;  -11.996;    0.000
520.837;   76.611;  -46.995;    0.000
521.425;  129.693;   10.004;    0.000
522.013;  107.687;   18.004;    0.000
522.601;   89.640;  -29.996;    0.000
523.189;   94.659;  -43.996;    0.000
523.777;  124.607;  -40.995;    0.000
524.365;  122.559;  -50.995;    0.000
524.953;  136.710;  -26.997;    0.000
525.541;  108.604;    3.005;    0.000
526.129;  121.628;  -13.996;    0.000
526.716;   79.776;  -81.997;    0.000
527.304;  157.695;    7.004;    0.000
527.892;  113.599;  -14.995;    0.000
528.479;  218.708;  -29.997;    0.000
529.067;  114.616;    1.005;    0.000
529.655;  206.736;  -12.997;    0.000
530.242;  250.614;   -9.995;    0.000
530.830;  237.723;   47.003;    0.000
531.417;  210.692;  -30.996;    0.000
532.005;  317.649;   15.004;    0.000
532.592;  310.768;    2.003;    0.000
533.179;  483.763;   27.003;    0.000
533.767;  458.636;   34.004;    0.000
534.354;  551.685;    9.004;    0.000
534.941;  736.694;   26.004;    0.000
535.529;  809.778;  -28.997;    0.000
536.116;  929.597;   -1.995;    0.000
536.703; 1271.795;  -18.998;    0.000
537.290; 1361.730;  -76.997;    0.000
537.877; 1738.732;  -26.997;    0.000
538.464; 1866.669;   56.004;    0.000
539.051; 2659.737;  -20.997;    0.000
539.638; 3301.787;  -36.997;    0.000
540.225; 4201.703;  -15.996;    0.000
540.812; 5286.762;  -28.997;    0.000
541.399; 6685.614;    4.005;    0.000
541.986; 8041.703;   50.004;    0.000
542.573; 9839.731;   10.003;    0.000
543.160;11210.655;    8.004;    0.000
543.746;13355.823;  -25.998;    0.000
544.333;14998.727;   14.003;    0.000
544.920;16543.817;    5.002;    0.000
545.506;18217.714;   13.003;    0.000
546.093;19485.662;    6.004;    0.000
546.680;20753.674;  -26.996;    0.000
547.266;21161.785;   23.003;    0.000
547.853;22113.757;  -18.997;    0.000
548.439;22143.796;  -26.998;    0.000
549.025;22516.807;  -56.998;    0.000
549.612;22451.664;   -0.996;    0.000
550.198;22246.766;   24.003;    0.000
550.785;21799.710;  -32.997;    0.000
551.371;21459.879;   17.001;    0.000
551.957;20602.815;  -39.998;    0.000
552.543;19705.586;  -29.995;    0.000
553.130;18247.681;  -11.996;    0.000
553.716;17103.730;  -39.997;    0.000
554.302;15384.872;   -4.998;    0.000
554.888;13650.864;    2.002;    0.000
555.474;12237.762;  -42.997;    0.000
556.060;10421.698;   12.004;    0.000
556.646; 9046.749;  -59.997;    0.000
557.232; 7615.737;  -11.997;    0.000
557.818; 6145.805;   -6.998;    0.000
558.404; 4864.761;  -24.997;    0.000
558.990; 3963.594;   -7.995;    0.000
559.576; 2800.680;   72.004;    0.000
560.161; 2052.604;  -53.995;    0.000
560.747; 1446.656;  -44.996;    0.000
561.333; 1110.758;   -7.997;    0.000
561.918;  807.676;  -23.996;    0.000
562.504;  674.780;  -33.997;    0.000
563.090;  479.734;   -6.997;    0.000
563.675;  415.753;    4.003;    0.000
564.261;  250.711;   -9.997;    0.000
564.846;  280.739;  -27.997;    0.000
565.432;  176.703;   29.004;    0.000
566.017;  240.721;  -18.997;    0.000
566.603;  191.791;  -19.998;    0.000
567.188;  177.701;  -62.996;    0.000
567.773;  139.853;  -13.998;    0.000
568.359;  190.827;  -18.998;    0.000
568.944;  191.773;    3.003;    0.000
569.529;  144.755;  -13.997;    0.000
570.114;  104.864;   -2.998;    0.000
570.699;  176.774;  -22.997;    0.000
571.284;   68.627;    3.004;    0.000
571.870;   96.863;   -7.998;    0.000
572.455;   63.805;  -22.998;    0.000
573.040;  100.654;  -86.996;    0.000
573.625;   11.779;   11.003;    0.000
574.209;  138.753;  -15.997;    0.000
574.794;   93.609;  -41.995;    0.000
575.379;   92.775;  -22.997;    0.000
575.964;   -0.142;  -18.998;    0.000
576.549;   88.812;   12.002;    0.000
577.134;   74.845;  -31.998;    0.000
577.718;  111.794;   -2.998;    0.000
578.303;   93.718;  -18.997;    0.000
578.888;  154.870;  -36.998;    0.000
579.472;   41.728;    8.003;    0.000
580.057;   85.670;    4.004;    0.000
580.641;   49.782;  -36.997;    0.000
581.226;   65.779;  -14.997;    0.000
581.810;    0.736;   -5.997;    0.000
582.395;  143.789;  -15.997;    0.000
582.979;   -7.333;  -27.996;    0.000
583.564;  119.637;   58.004;    0.000
584.148;  114.715;  -14.997;    0.000
584.732;   72.646;  -26.996;    0.000
585.317;   49.717;   12.003;    0.000
585.901;   44.650;  -45.996;    0.000
586.485;  -42.249;   -4.997;    0.000
587.069;   65.762;  -34.997;    0.000
587.653;   39.760;   15.003;    0.000
588.237;   63.786;   14.003;    0.000
588.821;  -40.231;  -18.997;    0.000
589.405;  273.804;  174.002;    0.000
589.989;   56.698;    1.004;    0.000
590.573;   84.843;  -19.998;    0.000
591.157;   11.686;    5.004;    0.000
591.741;   88.775;   -8.997;    0.000
592.325;   -3.188;   25.002;    0.000
592.909;  120.678;  -42.996;    0.000
593.492;  -22.183;  -35.998;    0.000
594.076;   60.707;  -50.997;    0.000
594.660;  -32.191;   -5.998;    0.000
595.244;   98.824;  -12.998;    0.000
595.827;  -36.259;  -18.997;    0.000
596.411;  143.892;  -19.999;    0.000
596.994;   19.828;   21.002;    0.000
597.578;   52.800;   21.002;    0.000
598.161;   40.646;   18.004;    0.000
598.745;  110.787;  -68.997;    0.000
599.328;  -68.274;   10.003;    0.000
599.911;   40.706;  -74.996;    0.000
600.495;   -2.325;  -46.996;    0.000
601.078;   26.818;  -10.998;    0.000
601.661;   -7.191;   52.002;    0.000
602.245;   58.840;    1.002;    0.000
602.828;  -50.167;  -44.998;    0.000
603.411;   99.813;   -2.998;    0.000
603.994;   24.542;   47.005;    0.000
604.577;   36.783;    6.003;    0.000
605.160;  -29.265;    1.003;    0.000
605.743;   31.775;  -43.997;    0.000
606.326;   -0.202;   -4.998;    0.000
606.909;   16.702;    8.004;    0.000
607.492;   21.733;  -12.997;    0.000
608.075;  111.822;  -16.998;    0.000
608.658;   17.798;  -19.998;    0.000
609.240;   72.808;  -21.998;    0.000
609.823;    7.755;  -25.997;    0.000
610.406;   35.762;  -59.997;    0.000
610.989;    9.790;  -17.998;    0.000
611.571;   81.868;   10.002;    0.000
612.154;  -38.237;  -24.997;    0.000
612.736;   88.870;  -20.998;    0.000
613.319;    1.772;   -1.997;    0.000
613.901;  105.800;  -16.998;    0.000
614.484;   42.740;   -2.997;    0.000
615.066;   83.651;   -7.996;    0.000
615.649;   25.901;  -45.999;    0.000
616.231;   87.773;  -22.997;    0.000
616.813;  -55.392;   22.005;    0.000
617.396;   45.514;  -82.994;    0.000
617.978;    7.428;   20.007;    0.000
618.560;   59.639;  -28.996;    0.000
619.142;  -22.418;  -10.995;    0.000
619.724;   78.587;  -46.995;    0.000
620.306;   -7.320;   15.004;    0.000
620.889;   48.733;  -43.997;    0.000
621.471;   31.716;   44.003;    0.000
622.053;   57.736;  -10.997;    0.000
622.635;  -29.334;   17.004;    0.000
623.216;   90.831;  -63.998;    0.000
623.798;    3.650;    8.004;    0.000
624.380;   78.768;  -63.997;    0.000
624.962;   20.667;   19.004;    0.000
625.544;   81.693;   33.004;    0.000
626.125;   -9.187;  -31.998;    0.000
626.707;  100.731;  -15.997;    0.000
627.289;   52.560;  -33.995;    0.000
627.870;   38.721;   -9.997;    0.000
628.452;   22.733;   -2.997;    0.000
629.034;  121.695;    8.004;    0.000
629.615;   45.684;  -45.996;    0.000
630.197;   84.698;  -64.996;    0.000
630.778;   18.758;  -34.997;    0.000
631.359;  123.635;  -22.996;    0.000
631.941;   10.770;   24.003;    0.000
632.522;   69.803;  -34.998;    0.000
633.103;  109.637;  -55.996;    0.000
633.685;  105.664;  -22.996;    0.000
634.266;   55.689;  -42.996;    0.000
634.847;   85.651;   -5.996;    0.000
635.428;   88.547;    1.005;    0.000
636.009;   93.734;    0.003;    0.000
636.590;   52.710;  -78.997;    0.000
637.171;   44.481;  -82.994;    0.000
637.752;   32.624;  -32.996;    0.000
638.333;   58.612;  -62.995;    0.000
638.914;  -17.352;    8.004;    0.000
639.495;   16.533;  -40.994;    0.000
640.076;   -0.326;  -20.996;    0.000
640.657;    0.675;  -73.996;    0.000
641.238;   -7.325;   17.004;    0.000
641.818;   37.676;  -21.996;    0.000
642.399;  -10.323;  -51.996;    0.000
642.980;   50.678;   10.004;    0.000
643.560;  -14.321;  -46.996;    0.000
644.141;   -9.321;  -36.996;    0.000
644.721;   -3.320;   -4.996;    0.000
645.302;   43.681;  -27.996;    0.000
645.882;   44.682;   21.004;    0.000
646.463;   87.683;  -10.996;    0.000
647.043;    8.683;  -39.996;    0.000
647.624;   40.684;  -25.996;    0.000
648.204;    3.685;   12.004;    0.000
648.784;   14.686;  -10.996;    0.000
649.365;  -76.313;  -12.996;    0.000
649.945;   48.687;  -11.996;    0.000
650.525;  -44.312;  -36.996;    0.000
651.105;   34.689;  -23.996;    0.000
651.685;  -23.310;  -26.996;    0.000
652.265;   28.691;   24.004;    0.000
652.845;  -20.309;  -17.996;    0.000
653.425;   30.692;   46.004;    0.000
654.005;  -21.307;   -1.996;    0.000
654.585;   22.694;  -50.996;    0.000
655.165;   15.695;  -33.996;    0.000
655.745;   -5.305;   -4.996;    0.000
656.325;   -1.304;  -44.996;    0.000
656.905;   55.697;  -56.996;    0.000
657.484;  -59.302;    1.004;    0.000
658.064;   22.699;   -2.996;    0.000
658.644;  -43.301;  -57.996;    0.000
659.223;   75.700;  -49.996;    0.000
659.803;  -42.299;  -27.996;    0.000
660.382;   32.702;  -28.996;    0.000
660.962;  -25.298;  -78.996;    0.000
661.541;    6.703;  -30.996;    0.000
662.121;  -18.296;  -62.996;    0.000
662.700;   15.705;  -27.996;    0.000
663.280;    7.706;  -61.996;    0.000
663.859;   29.706;    3.003;    0.000
664.438;  -33.293;   25.003;    0.000
665.017;   63.708;  -44.997;    0.000
665.597;  -36.291;    2.003;    0.000
666.176;   66.710;    7.003;    0.000
666.755;  -39.290;   -9.997;    0.000
667.334;   25.711;  -40.997;    0.000
667.913;  -44.288;  -23.997;    0.000
668.492;   56.713;   -2.997;    0.000
669.071;  -29.286;  -37.997;    0.000
669.650;    4.714;  -70.997;    0.000
670.229;    4.715;  -93.997;    0.000
670.808;   28.716;  -17.997;    0.000
671.387;    5.717;  -14.997;    0.000
671.965;   75.718;   -8.997;    0.000
672.544;  -54.282;  -46.997;    0.000
673.123;  -27.281;  -34.997;    0.000
673.702;   23.720;  -40.997;    0.000
674.280;   31.721;    9.003;    0.000
674.859;   15.722;  -17.997;    0.000
675.437;   57.722;  -10.997;    0.000
676.016;   35.723;   11.003;    0.000
676.594;   76.724;  -65.997;    0.000
677.173;   -4.275;  -14.997;    0.000
677.751;   52.726;    1.003;    0.000
678.330;   16.726;  -26.997;    0.000
678.908;   44.727;  -17.997;    0.000
679.486;   65.728;  -34.997;    0.000
680.065;   66.729;    1.003;    0.000
680.643;   55.730;  -76.997;    0.000
681.221;   72.730;  -16.997;    0.000
681.799;   57.731;  -30.997;    0.000
682.377;  155.732;  -34.997;    0.000
682.955;  122.733;  -52.997;    0.000
683.533;  238.734;   -7.997;    0.000
684.111;  147.734;  -59.997;    0.000
684.689;  243.735;  -14.997;    0.000
685.267;  179.736;  -20.997;    0.000
685.845;  249.737;  -35.997;    0.000
686.423;  230.738;    8.003;    0.000
687.001;  286.738;  -55.997;    0.000
687.579;  293.739;    7.003;    0.000
688.156;  306.740;  -17.997;    0.000
688.734;  290.741;  -25.997;    0.000
689.312;  379.742;  -47.997;    0.000
689.889;  276.742;  -35.997;    0.000
690.467;  415.743;  -37.997;    0.000
691.044;  342.744;  -48.997;    0.000
691.622;  343.745;   31.003;    0.000
692.199;  363.746;   -3.997;    0.000
692.777;  402.746;  -35.997;    0.000
693.354;  313.747;    5.003;    0.000
693.932;  309.748;   -9.997;    0.000
694.509;  241.749;  -39.997;    0.000
695.086;  296.750;  -33.997;    0.000
695.663;  308.750;  -39.997;    0.000
696.241;  379.751;  -66.997;    0.000
696.818;  226.752;  -74.997;    0.000
697.395;  313.753;  -33.997;    0.000
697.972;  255.754;  -16.997;    0.000
698.549;  342.754;  -67.997;    0.000
699.126;  255.755;  -18.997;    0.000
699.703;  333.756;  -16.997;    0.000
700.280;  206.757;    3.003;    0.000
700.857;  312.758;   10.003;    0.000
701.434;  230.758;  -45.997;    0.000
702.010;  306.759;   -8.997;    0.000
702.587;  240.760;  -53.997;    0.000
703.164;  333.761;   20.003;    0.000
703.741;  295.762;  -16.997;    0.000
704.317;  335.762;  -44.997;    0.000
704.894;  258.763;  -33.997;    0.000
705.471;  316.764;  -24.997;    0.000
706.047;  280.765;  -25.997;    0.000
706.624;  314.766;   -1.997;    0.000
707.200;  281.766;  -35.997;    0.000
707.776;  365.767;  -40.997;    0.000
708.353;  227.768;  -93.997;    0.000
708.929;  282.769;    5.003;    0.000
709.506;  248.770;   -4.997;    0.000
710.082;  305.770;  -57.997;    0.000
710.658;  234.771;  -33.997;    0.000
711.234;  248.772;  -10.997;    0.000
711.810;  220.773;   -0.997;    0.000
712.387;  250.774;  -39.997;    0.000
712.963;  278.774;   -8.997;    0.000
713.539;  203.775;   23.003;    0.000
714.115;  109.776;  -54.997;    0.000
714.691;  220.777;   -7.997;    0.000
715.267;  154.778;  -79.997;    0.000
715.842;  207.778;   -1.997;    0.000
716.418;  183.779;  -15.997;    0.000
716.994;  219.780;  -38.997;    0.000
717.570;  161.781;  -21.997;    0.000
718.146;  155.782;  -59.997;    0.000
718.721;   65.782;    1.003;    0.000
719.297;  120.783;  -31.997;    0.000
719.873;   91.784;  -40.997;    0.000
720.448;  153.785;   -2.997;    0.000
721.024;   47.786;  -47.997;    0.000
721.599;  179.786;    1.003;    0.000
722.175;  115.787;   12.003;    0.000
722.750;  138.788;  -99.997;    0.000
723.325;  134.789;   19.003;    0.000
723.901;  168.790;  -69.997;    0.000
724.476;   59.790;  -10.998;    0.000
725.051;  152.791;  -21.998;    0.000
725.627;  136.792;   26.002;    0.000
726.202;   95.793;  -27.998;    0.000
726.777;   37.794;    1.002;    0.000
727.352;   94.794;  -28.998;    0.000
727.927;   19.795;  -48.998;    0.000
728.502;  146.796;  -52.998;    0.000
729.077;   77.797;   -3.998;    0.000
729.652;  109.798;   -2.998;    0.000
730.227;   48.798;  -35.998;    0.000
730.802;   72.799;  -55.998;    0.000
731.377;   60.800;    4.002;    0.000
731.951;  137.801;  -29.998;    0.000
732.526;   46.802;  -36.998;    0.000
733.101;   92.802;    4.002;    0.000
733.676;   33.803;  -11.998;    0.000
734.250;   80.804;  -21.998;    0.000
734.825;   -7.195;  -14.998;    0.000
735.399;   73.806;  -39.998;    0.000
735.974;   59.806;  -29.998;    0.000
736.548;  155.807;  -37.998;    0.000
737.123;   63.808;  -62.998;    0.000
737.697;  110.809;   -6.998;    0.000
738.272;   74.810;   28.002;    0.000
738.846;  124.810;  -22.998;    0.000
739.420;   83.811;  -68.998;    0.000
739.994;   86.812;  -42.998;    0.000
740.569;   74.813;  -24.998;    0.000
741.143;   99.814;   -5.998;    0.000
741.717;   37.814;  -40.998;    0.000
742.291;  138.815;  -25.998;    0.000
742.865;   60.816;   -4.998;    0.000
743.439;  153.817;  -47.998;    0.000
744.013;   55.818;   37.002;    0.000
744.587;  101.818;  -45.998;    0.000
745.161;   92.819;  -60.998;    0.000
745.735;  104.820;   -3.998;    0.000
746.308;   74.821;  -17.998;    0.000
746.882;  126.822;  -78.998;    0.000
747.456;   98.822;    1.002;    0.000
748.030;   84.823;  -19.998;    0.000
748.603;   33.824;  -51.998;    0.000
749.177;  179.825;  -24.998;    0.000
749.751;   96.826;  -22.998;    0.000
750.324;  117.826;  -72.998;    0.000
750.898;   67.827;  -21.998;    0.000
751.471;  131.828;   40.002;    0.000
752.044;   99.829;  -45.998;    0.000
752.618;   60.830;  -42.998;    0.000
753.191;  136.830;  -21.998;    0.000
753.764;  152.831;  -50.998;    0.000
754.338;  109.832;  -49.998;    0.000
754.911;  168.833;    1.002;    0.000
755.484;   97.834;  -38.998;    0.000
756.057;  232.834;  -52.998;    0.000
756.630;  163.835;  -48.998;    0.000
757.203;  117.836;  -18.998;    0.000
757.776;   83.837;  -16.998;    0.000
758.349;  183.838;  -62.998;    0.000
758.922;   45.838;  -59.998;    0.000
759.495;  138.839;  -81.998;    0.000
760.068;  156.840;  -62.998;    0.000
760.641;  214.841;  -45.998;    0.000
761.214;  101.842;  -18.998;    0.000
761.786;  181.842;  -53.998;    0.000
762.359;  186.843;  -10.998;    0.000
762.932;  240.844;    3.002;    0.000
763.504;  186.845;  -10.998;    0.000
764.077;  175.846;  -14.998;    0.000
764.649;  160.846;  -26.998;    0.000
765.222;  223.847;  -80.998;    0.000
765.794;  141.848;   18.002;    0.000
766.367;  271.849;  -76.998;    0.000
766.939;  127.850;   -8.998;    0.000
767.511;  164.850;  -52.998;    0.000
768.084;  155.851;  -63.998;    0.000
768.656;  245.852;  -54.998;    0.000
769.228;  173.853;    6.002;    0.000
769.800;  212.854; -103.998;    0.000
770.373;  129.854;  -15.998;    0.000
770.945;  192.855;  -29.998;    0.000
771.517;  158.856;  -50.998;    0.000
772.089;  241.857;    1.002;    0.000
772.661;  141.858;   -7.998;    0.000
773.233;  187.858;  -49.998;    0.000
773.805;  213.859;   -8.998;    0.000
774.376;  149.860;  -64.998;    0.000
774.948;  190.861;  -44.998;    0.000
775.520;  229.862;  -33.998;    0.000
776.092;  193.862;   27.002;    0.000
776.663;  189.863;  -39.998;    0.000
777.235;  162.864;  -41.998;    0.000
777.807;  169.865;   -9.998;    0.000
778.378;  204.866;  -12.998;    0.000
778.950;  251.866;  -13.998;    0.000
779.521;  114.867;  -47.998;    0.000
780.093;  245.868;  -18.998;    0.000
780.664;  146.869;   19.002;    0.000
781.235;  254.870;  -21.998;    0.000
781.807;  147.870;    1.002;    0.000
782.378;  139.871;    4.002;    0.000
782.949;  130.872;  -22.998;    0.000
783.521;  169.873;    8.002;    0.000
784.092;  136.874;  -18.998;    0.000
784.663;  264.874;   -2.999;    0.000
785.234;  127.875;  -49.999;    0.000
785.805;  237.876;   -0.999;    0.000
786.376;  150.877;  -25.999;    0.000
786.947;  208.878;  -16.999;    0.000
787.518;  159.878;    5.001;    0.000
788.089;  200.879;  -42.999;    0.000
788.660;  118.880;   -3.999;    0.000
789.230;  211.881;  -36.999;    0.000
789.801;  149.882;    8.001;    0.000
790.372;  228.882;  -26.999;    0.000
790.943;  147.883;   11.001;    0.000
791.513;  229.884;  -91.999;    0.000
792.084;  121.885;   54.001;    0.000
792.654;  217.886;  -17.999;    0.000
793.225;  183.886;   13.001;    0.000
793.795;  144.887;  -65.999;    0.000
794.366;  160.888;  -35.999;    0.000
794.936;  177.889;    7.001;    0.000
795.507;  190.890;  -48.999;    0.000
796.077;  258.890;    5.001;    0.000
796.647;  113.891;  -10.999;    0.000
797.217;  182.892;  -35.999;    0.000
797.788;  164.893;  -21.999;    0.000
798.358;  213.894;  -29.999;    0.000
798.928;   76.894;  -68.999;    0.000
799.498;  179.895;  -38.999;    0.000
800.068;  172.896;  -21.999;    0.000
800.638;  198.897;  -20.999;    0.000
801.208;  116.898;  -32.999;    0.000
801.778;  184.898;   -1.999;    0.000
802.348;   95.899;  -46.999;    0.000
802.917;  182.900;  -50.999;    0.000
803.487;  158.901;  -19.999;    0.000
804.057;  108.902;  -39.999;    0.000
804.627;  175.902;  -36.999;    0.000
805.196;  142.903;   -6.999;    0.000
805.766;  228.904;  -26.999;    0.000
806.335;  209.905;  -35.999;    0.000
806.905;  187.906;   -5.999;    0.000
807.475;  126.906;  -41.999;    0.000
808.044;  140.907;   -6.999;    0.000
808.613;  182.908;  -50.999;    0.000
809.183;  134.909;  -21.999;    0.000
809.752;  220.910;  -56.999;    0.000
810.321;  124.910;  -40.999;    0.000
810.891;  176.911;  -76.999;    0.000
811.460;  152.912;  -20.999;    0.000
812.029;  179.913;   -4.999;    0.000
812.598;  127.914;  -19.999;    0.000
813.167;  190.914;  -39.999;    0.000
813.736;  145.915;   -5.999;    0.000
814.305;  184.916; -111.999;    0.000
814.874;  167.917;  -13.999;    0.000
815.443;  122.918;   -1.999;    0.000
816.012;  124.918;  -29.999;    0.000
816.581;  135.919;  -30.999;    0.000
817.150;  147.920;  -45.999;    0.000
817.718;  220.921;  -50.999;    0.000
818.287;  150.922;  -74.999;    0.000
818.856;  198.922;  -24.999;    0.000
819.424;   75.923;  -32.999;    0.000
819.993;  194.924;  -32.999;    0.000
820.562;   63.925;  -46.999;    0.000
821.130;  161.926;   -0.999;    0.000
821.698;   98.926;  -35.999;    0.000
822.267;  152.927;  -37.999;    0.000
822.835;  140.928;  -41.999;    0.000
823.404;  170.929;  -58.999;    0.000
823.972;   82.930;  -43.999;    0.000
824.540;  167.930;  -31.999;    0.000
825.108;  117.931;   31.001;    0.000
825.677;  130.932;    3.001;    0.000
826.245;   64.933;   17.001;    0.000
826.813;  127.934;  -27.999;    0.000
827.381;   79.934;  -13.999;    0.000
827.949;  223.935;  -35.999;    0.000
828.517;   54.936;  -25.999;    0.000
829.085;  156.937;  -44.999;    0.000
829.653;  111.938;  -23.999;    0.000
830.220;   84.938;  -32.999;    0.000
830.788;  123.939;  -35.999;    0.000
831.356;  125.940;  -66.999;    0.000
831.924;   81.941;   38.001;    0.000
832.491;  160.942;   10.001;    0.000
833.059;  115.942;    6.001;    0.000
833.627;  178.943;  -83.999;    0.000
834.194;   94.944;  -72.999;    0.000
834.762;  107.945;   -4.999;    0.000
835.329;  147.946;  -34.999;    0.000
835.897;  176.946;    1.001;    0.000
836.464;   96.947;  -29.999;    0.000
837.031;  187.948;   -5.999;    0.000
837.599;  133.949;  -61.999;    0.000
838.166;  140.950;   23.001;    0.000
838.733;   89.950;  -54.999;    0.000
839.300;  162.951;  -64.999;    0.000
839.867;  131.952;  -34.999;    0.000
840.434;  191.953;  -30.999;    0.000
841.001;  115.954;  -57.999;    0.000
841.568;  151.954;  -30.999;    0.000
842.135;  110.955;  -51.999;    0.000
842.702;  150.956;   29.001;    0.000
843.269;  113.957;  -56.999;    0.000
843.836;  218.958;  -10.999;    0.000
844.403;  115.958;   33.000;    0.000
844.970;  119.959;  -26.000;    0.000
845.536;  156.960;  -45.000;    0.000
846.103;  127.961;  -50.000;    0.000
846.670;   76.962;  -39.000;    0.000
847.236;  168.962;  -39.000;    0.000
847.803;  171.963;  -39.000;    0.000
848.369;  178.964;    2.000;    0.000
848.936;  149.965;  -63.000;    0.000
849.502;  192.966;    3.000;    0.000
850.069;  171.966;  -13.000;    0.000
850.635;  132.967;  -55.000;    0.000
851.201;  144.968;  -17.000;    0.000
851.767;  167.969;  -15.000;    0.000
852.334;  181.970;  -18.000;    0.000
852.900;  154.970;   20.000;    0.000
853.466;  143.971;  -67.000;    0.000
854.032;  216.972;  -48.000;    0.000
854.598;   99.973;  -55.000;    0.000
855.164;  189.974;  -25.000;    0.000
855.730;  136.974;   -6.000;    0.000
856.296;  152.975;   13.000;    0.000
856.862;  107.976;   20.000;    0.000
857.428;  178.977;    1.000;    0.000
857.993;  168.978;  -34.000;    0.000
858.559;  252.978;   11.000;    0.000
859.125;  133.979;  -33.000;    0.000
859.690;  120.980;  -50.000;    0.000
860.256;  110.981;   -5.000;    0.000
860.822;  150.982;  -69.000;    0.000
861.387;  147.982;  -24.000;    0.000
861.953;  227.983;  -62.000;    0.000
862.518;  175.984;  -67.000;    0.000
863.083;  209.985;  -64.000;    0.000
863.649;  190.986;  -20.000;    0.000
864.214;  244.986;  -34.000;    0.000
864.779;  211.987;  -77.000;    0.000
865.345;  250.988;  -13.000;    0.000
865.910;  174.989;   -8.000;    0.000
866.475;  229.990;  -14.000;    0.000
867.040;  171.990;  -55.000;    0.000
867.605;  274.991;  -46.000;    0.000
868.170;  218.992;   10.000;    0.000
868.735;  275.993;  -40.000;    0.000
869.300;  228.994;   -9.000;    0.000
869.865;  262.994;   27.000;    0.000
870.430;  142.995;  -25.000;    0.000
870.995;  251.996;   43.000;    0.000
871.559;  169.997;  -18.000;    0.000
872.124;  220.998;  -12.000;    0.000
872.689;  160.998;  -84.000;    0.000
873.253;  219.999;  -20.000;    0.000
873.818;  178.000;  -38.000;    0.000
874.382;  290.000;  -47.000;    0.000
874.947;  180.000;  -58.000;    0.000
875.511;  279.000;  -32.000;    0.000
876.076;  180.000;  -58.000;    0.000
876.640;  232.000;  -33.000;    0.000
877.205;  213.000;  -33.000;    0.000
877.769;  261.000;  -37.000;    0.000
878.333;  165.000;  -74.000;    0.000
878.897;  199.000;  -39.000;    0.000
879.461;  124.000;  -34.000;    0.000
880.026;  265.000;   26.000;    0.000
880.590;  218.000;  -24.000;    0.000
881.154;  265.000;  -39.000;    0.000
881.718;  193.000;   -7.000;    0.000
882.282;  285.000;  -19.000;    0.000
882.846;  200.000;  -17.000;    0.000
883.409;  200.000;  -44.000;    0.000
883.973;  242.000;   25.000;    0.000
884.537;  223.000;  -29.000;    0.000
885.101;  186.000;  -33.000;    0.000
885.664;  179.000;  -30.000;    0.000
886.228;  240.000;  -22.000;    0.000
886.792;  246.000;  -23.000;    0.000
887.355;  207.000;    6.000;    0.000
887.919;  260.000;   -6.000;    0.000
888.482;  189.000;  -25.000;    0.000
889.046;  197.000;  -15.000;    0.000
889.609;  213.000;  -37.000;    0.000
890.172;  280.000;   -3.000;    0.000
890.736;  210.000;  -11.000;    0.000
891.299;  275.000;  -54.000;    0.000
891.862;  230.000;  -27.000;    0.000
892.425;  261.000;  -84.000;    0.000
892.988;  266.000;  -43.000;    0.000
893.552;  268.000;  -33.000;    0.000
894.115;  231.000;  -17.000;    0.000
894.678;  206.000;    9.000;    0.000
895.241;  182.000;   18.000;    0.000
895.803;  236.000;  -11.000;    0.000
896.366;  236.000;  -20.000;    0.000
896.929;  230.000;  -40.000;    0.000
897.492;  281.000;  -85.000;    0.000
898.055;  256.000;  -33.000;    0.000
898.617;  228.000;  -35.000;    0.000
899.180;  269.000;  -50.000;    0.000
899.743;  199.000;   20.000;    0.000
900.305;  233.000;   36.000;    0.000
900.868;  156.000;   -6.000;    0.000
901.430;  239.000;  -13.000;    0.000
901.993;  222.000;   17.000;    0.000
902.555;  292.000;  -22.000;    0.000
903.117;  252.000;  -40.000;    0.000
903.680;  251.000;  -35.000;    0.000
904.242;  181.000;  -20.000;    0.000
904.804;  286.000;    9.000;    0.000
905.366;  254.000;   11.000;    0.000
905.929;  263.000;   18.000;    0.000
906.491;  245.000;  -61.000;    0.000
907.053;  269.000;  -28.000;    0.000
907.615;  225.000;  -31.000;    0.000
908.177;  262.000;  -38.000;    0.000
908.739;  193.000;  -39.000;    0.000
909.300;  241.000;  -18.000;    0.000
909.862;  254.000;  -34.000;    0.000
910.424;  249.000;  -49.000;    0.000
910.986;  305.000;  -35.000;    0.000
911.547;  289.000;  -39.000;    0.000
912.109;  216.000;   19.000;    0.000
912.671;  272.000;  -55.000;    0.000
913.232;  202.000;   -8.000;    0.000
913.794;  249.000;  -69.000;    0.000
914.355;  200.000;  -23.000;    0.000
914.917;  201.000;  -28.000;    0.000
915.478;  240.000;  -29.000;    0.000
916.039;  264.000;   -4.000;    0.000
916.601;  206.000;  -50.000;    0.000
917.162;  275.000;  -35.000;    0.000
917.723;  186.000;   -2.000;    0.000
918.284;  287.000;  -50.000;    0.000
918.845;  232.000;   -2.000;    0.000
919.407;  306.000;  -33.000;    0.000
919.968;  189.000;  -29.000;    0.000
920.529;  266.000;  -39.000;    0.000
921.090;  263.000;  -23.000;    0.000
921.650;  345.000;  -41.000;    0.000
922.211;  239.000;  -44.000;    0.000
922.772;  321.000;   38.000;    0.000
923.333;  187.000;  -65.000;    0.000
923.894;  262.000;  -81.000;    0.000
924.454;  210.000;    4.000;    0.000
925.015;  292.000;  -16.000;    0.000
925.576;  208.000;  -63.000;    0.000
926.136;  276.000;  -60.000;    0.000
926.697;  179.000;  -44.000;    0.000
927.257;  222.000;  -60.000;    0.000
927.818;  222.000;  -44.000;    0.000
928.378;  309.000;  -51.000;    0.000
928.938;  144.000;   -2.000;    0.000
929.499;  258.000;  -14.000;    0.000
930.059;  161.000;  -50.000;    0.000
930.619;  240.000;  -36.000;    0.000
931.179;  220.000;    7.000;    0.000
931.739;  209.000;  -15.000;    0.000
932.299;  225.000;    5.000;    0.000
932.859;  215.000;  -17.000;    0.000
933.419;  182.000;   -2.000;    0.000
933.979;  281.000;  -40.000;    0.000
934.539;  202.000;  -15.000;    0.000
935.099;  231.000;  -17.000;    0.000
935.659;  153.000;  -20.000;    0.000
936.219;  256.000;  -77.000;    0.000
936.778;  160.000;  -70.000;    0.000
937.338;  238.000;  -29.000;    0.000
937.898;  197.000;  -58.000;    0.000
938.457;  259.000;  -48.000;    0.000
939.017;  204.000;  -40.000;    0.000
939.576;  191.000;  -43.000;    0.000
940.136;  193.000;    4.000;    0.000
940.695;  231.000;    5.000;    0.000
941.254;  185.000;  -18.000;    0.000
941.814;  249.000;  -58.000;    0.000
942.373;  187.000;  -37.000;    0.000
942.932;  205.000;  -50.000;    0.000
943.491;  145.000;   -3.000;    0.000
944.051;  245.000;  -25.000;    0.000
944.610;  214.000;   13.000;    0.000
945.169;  190.000;  -72.000;    0.000
945.728;  120.000;   15.000;    0.000
946.287;  205.000;  -47.000;    0.000
946.846;  122.000;  -50.000;    0.000
947.404;  236.000;  -75.000;    0.000
947.963;  135.000;  -88.000;    0.000
948.522;  135.000;  -22.000;    0.000
949.081;  152.000; -107.000;    0.000
949.639;  266.000;    7.000;    0.000
950.198;  166.000;  -11.000;    0.000
950.757;  238.000;  -34.000;    0.000
951.315;  133.000;   -5.000;    0.000
951.874;  227.000;  -49.000;    0.000
952.432;  149.000;  -16.000;    0.000
952.991;  202.000;  -27.000;    0.000
953.549;  101.000;   51.000;    0.000
954.107;  193.000;   18.000;    0.000
954.666;  179.000;  -18.000;    0.000
955.224;  141.000;  -52.000;    0.000
955.782;  159.000;  -53.000;    0.000
956.340;  223.000;  -72.000;    0.000
956.898;  108.000;  -29.000;    0.000
957.456;  246.000;  -19.000;    0.000
958.014;  190.000;  -16.000;    0.000
958.572;  182.000;  -68.000;    0.000
959.130;  175.000;  -22.000;    0.000
959.688;  249.000;  -54.000;    0.000
960.246;  105.000;   -7.000;    0.000
960.804;  204.000;  -56.000;    0.000
961.362;  167.000;   -4.000;    0.000
961.919;  172.000;  -57.000;    0.000
962.477;   54.000;  -65.000;    0.000
963.035;  155.000;  -13.000;    0.000
963.592;  156.000;  -28.000;    0.000
964.150;  200.000;   -2.000;    0.000
964.707;  140.000;  -58.000;    0.000
965.265;  166.000;  -58.000;    0.000
965.822;  153.000;  -40.000;    0.000
966.379;  145.000;  -42.000;    0.000
966.937;  138.000;  -65.000;    0.000
967.494;  169.000;  -53.000;    0.000
968.051;  149.000;  -55.000;    0.000
968.608;  153.000;  -26.000;    0.000
969.165;  130.000;  -25.000;    0.000
969.722;  168.000;  -86.000;    0.000
970.279;  210.000;    4.000;    0.000
970.836;  187.000;  -85.000;    0.000
971.393;   98.000;   15.000;    0.000
971.950;  218.000;    2.000;    0.000
972.507;  152.000;  -55.000;    0.000
973.064;  154.000;  -22.000;    0.000
973.621;  121.000;   -6.000;    0.000
974.177;  208.000;  -34.000;    0.000
974.734;  121.000;  -29.000;    0.000
975.291;  205.000;    3.000;    0.000
975.847;  135.000;  -29.000;    0.000
976.404;  155.000;  -31.000;    0.000
976.960;  148.000;  -11.000;    0.000
977.517;  207.000;  -38.000;    0.000
978.073;  114.000;   -2.000;    0.000
978.629;  204.000;   12.000;    0.000
979.186;  119.000;  -39.000;    0.000
979.742;  125.000;  -49.000;    0.000
980.298;   35.000;  -97.000;    0.000
980.854;  154.000;  -63.000;    0.000
981.411;   48.000;    8.000;    0.000
981.967;  144.000;  -57.000;    0.000
982.523;   96.000;  -38.000;    0.000
983.079;  140.000;  -60.000;    0.000
983.635;  125.000;  -19.000;    0.000
984.190;  137.000;  -10.000;    0.000
984.746;  164.000;  -26.000;    0.000
985.302;  141.000;  -67.000;    0.000
985.858;   40.000;  -20.000;    0.000
986.414;  253.000;  -49.000;    0.000
986.969;  128.000;  -35.000;    0.000
987.525;   69.000;  -35.000;    0.000
988.080;   84.000;  -27.000;    0.000
988.636;  147.000;  -70.000;    0.000
989.192;   78.000;  -90.000;    0.000
989.747;  181.000;  -31.000;    0.000
990.302;   86.000;   -5.000;    0.000
990.858;  133.000;  -43.000;    0.000
991.413;   43.000;  -65.000;    0.000
991.968;  122.000;  -83.000;    0.000
992.523;   88.000;   15.000;    0.000
993.079;  104.000;  -40.000;    0.000
993.634;   94.000;   -5.000;    0.000
994.189;  162.000;  -64.000;    0.000
994.744;   37.000;  -61.000;    0.000
995.299;   97.000;  -60.000;    0.000
995.854;   90.000;  -34.000;    0.000
996.409;  156.000;  -44.000;    0.000
996.963;   39.000;  -42.000;    0.000
997.518;  137.000;  -16.000;    0.000
998.073;   66.000;  -34.000;    0.000
998.628;  120.000;  -35.000;    0.000
999.182;   58.000;  -44.000;    0.000
999.737;  184.000;  -51.000;    0.000
1000.292;   38.000;  -26.000;    0.000
1000.846;  106.000;  -29.000;    0.000
1001.401;   40.000;  -13.000;    0.000
1001.955;  124.000;    0.000;    0.000
1002.509;   46.000;  -51.000;    0.000
1003.064;   62.000;  -37.000;    0.000
1003.618;   77.000;  -42.000;    0.000
1004.172;  109.000;  -50.000;    0.000
1004.726;   38.000;  -62.000;    0.000
1005.281;  110.000;   -1.000;    0.000
1005.835;   27.000;  -46.000;    0.000
1006.389;   91.000;  -49.000;    0.000
1006.943;   50.000;  -53.000;    0.000
1007.497;  102.000;    3.000;    0.000
1008.051;   31.000;   -6.000;    0.000
1008.605;   76.000;  -57.000;    0.000
1009.158;   41.000;  -22.000;    0.000
1009.712;  150.000;   22.000;    0.000
1010.266;   45.000;  -70.000;    0.000
1010.820;  102.000;  -57.000;    0.000
1011.373;   32.000;  -32.000;    0.000
1011.927;   43.000;   -9.000;    0.000
1012.480;   65.000;  -37.000;    0.000
1013.034;  109.000;  -25.000;    0.000
1013.587;   15.000;   -2.000;    0.000
1014.141;   95.000;   -2.000;    0.000
1014.694;   23.000;  -66.000;    0.000
1015.248;   79.000;  -32.000;    0.000
1015.801;   46.000;    2.000;    0.000
1016.354;  110.000;  -57.000;    0.000
1016.907;    7.000;  -55.000;    0.000
1017.460;  106.000;  -35.000;    0.000
1018.013;    9.000;  -28.000;    0.000
1018.567;  128.000;   -3.000;    0.000
1019.120;  -25.000;   -4.000;    0.000
1019.672;  132.000;  -27.000;    0.000
1020.225;   51.000;  -15.000;    0.000
1020.778;   63.000;  -80.000;    0.000
1021.331;    8.000;   -3.000;    0.000
1021.884;    4.000;   28.000;    0.000
1022.437;   58.000;  -55.000;    0.000
1022.989;   54.000;  -23.000;    0.000
1023.542;    5.000;  -10.000;    0.000
1024.094;  151.000;  -11.000;    0.000
1024.647;   -4.000;  -56.000;    0.000
1025.199;   84.000;  -37.000;    0.000
1025.752;   51.000;    9.000;    0.000
1026.304;   59.000;  -31.000;    0.000
1026.857;   -3.000;   33.000;    0.000
1027.409;  101.000;  -14.000;    0.000
1027.961;   58.000;  -44.000;    0.000
1028.513;  100.000;   17.000;    0.000
1029.066;   19.000;  -91.000;    0.000
1029.618;   61.000;  -57.000;    0.000
1030.170;   16.000;  -41.000;    0.000
1030.722;   54.000; -124.000;    0.000
1031.274;   38.000;  -27.000;    0.000
1031.826;   52.000;  -19.000;    0.000
1032.378;    0.000;  -28.000;    0.000
1032.929;   53.000;  -28.000;    0.000
1033.481;    7.000;  -44.000;    0.000
1034.033;   66.000;  -55.000;    0.000
1034.585;   22.000;  -15.000;    0.000
1035.136;   43.000;  -80.000;    0.000
1035.688;  -14.000;  -62.000;    0.000
1036.239;   32.000;  -64.000;    0.000
1036.791;  -27.000;  -43.000;    0.000
1037.342;   20.000;   -7.000;    0.000
1037.894;  -33.000;    0.000;    0.000
1038.445;   74.000;  -43.000;    0.000
1038.996;   -6.000;  -22.000;    0.000
1039.548;   71.000;  -37.000;    0.000
1040.099;  -18.000;  -23.000;    0.000
1040.650;   20.000;  -40.000;    0.000
1041.201;  -15.000;  -61.000;    0.000
1041.752;   42.000;   19.000;    0.000
1042.303;  -13.000; -118.000;    0.000
1042.854;   36.000;  -99.000;    0.000
1043.405;   60.000;  -14.000;    0.000
1043.956;   29.000;  -30.000;    0.000
1044.507;  -31.000;  -48.000;    0.000
1045.058;   42.000;  -31.000;    0.000
1045.609;  -16.000;  -31.000;    0.000
1046.159;   39.000;  -55.000;    0.000
1046.710;   -4.000;  -83.000;    0.000
1047.261;   61.000;  -76.000;    0.000
1047.811;   -1.000;  -33.000;    0.000
1048.362;   87.000;  -47.000;    0.000
1048.912;  117.000;   49.000;    0.000
1049.463;   87.000;   -5.000;    0.000
1050.013;  -84.000;  -40.000;    0.000
1050.563;   30.000;  -76.000;    0.000
1051.114;    5.000;  -29.000;    0.000
1051.664;   21.000;  -21.000;    0.000
1052.214;   -1.000;  -48.000;    0.000
1052.764;   15.000;  -46.000;    0.000
1053.314;  -23.000;  -56.000;    0.000
1053.864;   13.000;   -6.000;    0.000
1054.414;  -20.000;  -54.000;    0.000
1054.964;   60.000;  -70.000;    0.000
1055.514;  -47.000;   21.000;    0.000
1056.064;   55.000;  -16.000;    0.000
1056.614;  -30.000;  -31.000;    0.000
1057.163;   15.000;  -61.000;    0.000
1057.713;  -26.000;  -29.000;    0.000
1058.263;   -1.000;  -83.000;    0.000
1058.812;  -23.000;  -32.000;    0.000
1059.362;   56.000;  -67.000;    0.000
1059.912;  -25.000;  -30.000;    0.000
1060.461;  -42.000;    8.000;    0.000
1061.010;  -73.000;  -35.000;    0.000
1061.560;  -15.000;  -64.000;    0.000
1062.109;  -56.000;   -3.000;    0.000
1062.658;   38.000;  -51.000;    0.000
1063.208;  -15.000;  -84.000;    0.000
1063.757;  -12.000;  -89.000;    0.000
1064.306;   22.000;  -12.000;    0.000
1064.855;   -5.000;  -39.000;    0.000
1065.404;  -13.000;  -21.000;    0.000
1065.953;   15.000;  -14.000;    0.000
1066.502;  -16.000;  -20.000;    0.000
1067.051;  -12.000;  -30.000;    0.000
1067.600;  -29.000;  -37.000;    0.000
1068.149;   42.000;  -46.000;    0.000
1068.698;  -23.000;  -45.000;    0.000
1069.246;   31.000;  -50.000;    0.000
1069.795; -102.000;  -65.000;    0.000
1070.344;   24.000;  -48.000;    0.000
1070.892;  -43.000;  -61.000;    0.000
1071.441;   23.000;  -34.000;    0.000
1071.989;  -21.000;  -33.000;    0.000
1072.538;   34.000;  -36.000;    0.000
1073.086; -104.000;  -12.000;    0.000
1073.634;    7.000;  -38.000;    0.000
1074.183;  -39.000;  -43.000;    0.000
1074.731;  -24.000;  -92.000;    0.000
1075.279;  -17.000;  -52.000;    0.000
1075.827;   33.000;  -78.000;    0.000
1076.375;  -25.000;  -27.000;    0.000
1076.923;   51.000;    5.000;    0.000
1077.471;   -4.000;  -52.000;    0.000
1078.019;   56.000;  -58.000;    0.000
1078.567;  -16.000;  -47.000;    0.000
1079.115;   46.000;  -71.000;    0.000
1079.663;  -17.000;  -59.000;    0.000
1080.210;   27.000;  -34.000;    0.000
1080.758;  -26.000;  -27.000;    0.000
1081.306;   77.000;  -79.000;    0.000
1081.853;   -1.000;  -55.000;    0.000
1082.401;  -32.000;  -85.000;    0.000
1082.949;  -91.000;  -67.000;    0.000
1083.496;    0.000;  -39.000;    0.000
1084.043;  -40.000;  -25.000;    0.000
1084.591;   26.000;  -53.000;    0.000
1085.138;  -28.000;  -18.000;    0.000
1085.685;   29.000;  -79.000;    0.000
1086.233;  -60.000;  -39.000;    0.000
1086.780;   65.000;  -48.000;    0.000
1087.327;  -53.000;  -34.000;    0.000
1087.874;   49.000;  -33.000;    0.000
1088.421;   -4.000;  -11.000;    0.000
1088.968;   61.000;  -59.000;    0.000
1089.515;  -78.000;  -10.000;    0.000
1090.062;   14.000;   -9.000;    0.000
1090.609;  -80.000;  -24.000;    0.000
1091.156;    3.000;  -55.000;    0.000
1091.702;  -64.000;  -57.000;    0.000
1092.249;   34.000;  -45.000;    0.000
1092.796;  -65.000;  -48.000;    0.000
1093.342;  -25.000;  -24.000;    0.000
1093.889;  -65.000;  -37.000;    0.000
1094.435;   -5.000;  -26.000;    0.000
1094.982;  -13.000;  -60.000;    0.000
1095.528;  -10.000;  -68.000;    0.000
1096.075;  -45.000;  -44.000;    0.000
1096.621;   42.000;  -94.000;    0.000
1097.167;   19.000;  -37.000;    0.000
1097.713;   48.000;  -66.000;    0.000
1098.259;  -63.000;  -42.000;    0.000
1098.806;   60.000;  -46.000;    0.000
1099.352;  -55.000;    3.000;    0.000
1099.898;   12.000;  -62.000;    0.000
1100.444;  -54.000;  -59.000;    0.000

