
Integration time [ms]: 100.000
Averaging Nr. [scans]: 1
Smoothing Nr. [pixels]: 0
Data measured with spectrometer [name]: 1701237U1
Wave   ;Sample   ;Dark     ;Reference
[nm]   ;[counts] ;[counts] ;[counts] 

173.876;    0.966;    7.002;    0.000
174.482;  -23.022;    9.001;    0.000
175.087;    8.992;   12.001;    0.000
175.693;   -9.021;   34.001;    0.000
176.298;  -20.035;   10.002;    0.000
176.903;  -32.012;  -11.999;    0.000
177.509;  -22.007;   19.000;    0.000
178.114;   -2.025;   -1.998;    0.000
178.719;   18.986;    3.001;    0.000
179.325;   15.971;   -6.998;    0.000
179.930;   14.973;  -51.998;    0.000
180.535;   -7.008;  -13.999;    0.000
181.140;   29.966;   13.002;    0.000
181.745;  -19.010;    4.001;    0.000
182.351;   -9.007;   15.000;    0.000
182.956;   -7.015;   14.001;    0.000
183.561;    5.964;  -12.998;    0.000
184.166;   -5.020;   43.001;    0.000
184.771;  -14.007;    2.000;    0.000
185.376;    0.978;   -1.999;    0.000
185.981;  -22.023;  -26.998;    0.000
186.586;   -1.014;    6.001;    0.000
187.191;  -11.019;  -27.999;    0.000
187.796;  -45.032;   37.002;    0.000
188.400;   17.952;   19.003;    0.000
189.005;  -17.023;  -54.998;    0.000
189.610;  -17.015;   19.001;    0.000
190.215;   15.968;  -31.998;    0.000
190.820;  -45.028;   -6.998;    0.000
191.424;   -3.036;  -27.998;    0.000
192.029;  -13.038;  -12.997;    0.000
192.634;   -3.043;  -13.997;    0.000
193.238;   52.989;  -57.999;    0.000
193.843;   -1.052;    9.003;    0.000
194.448;    1.956;    4.003;    0.000
195.052;  -21.029;   16.002;    0.000
195.657;  -40.040;  -14.997;    0.000
196.261;   -0.053;   19.004;    0.000
196.866;   -3.047;  -24.997;    0.000
197.470;    4.962;   20.003;    0.000
198.075;  -31.052;  -67.997;    0.000
198.679;  -12.055;  -26.996;    0.000
199.284;    6.968;   22.002;    0.000
199.888;   -2.068;   36.005;    0.000
200.492;  -14.052;    2.003;    0.000
201.097;   53.959;   40.003;    0.000
201.701;   -5.056;   13.004;    0.000
202.305;  -17.025;    5.002;    0.000
202.909;  -18.025;  -17.998;    0.000
203.514;   16.958;   23.003;    0.000
204.118;  -22.006;    0.000;    0.000
204.722;   -9.015;   99.001;    0.000
205.326;  -41.025;  -12.998;    0.000
205.930;  -17.030;    7.002;    0.000
206.534;   13.966;   -5.998;    0.000
207.138;  -15.033;   42.002;    0.000
207.742;   64.969;   10.002;    0.000
208.346;  -33.039;   18.003;    0.000
208.950;  -23.032;   16.002;    0.000
209.554;   56.967;   55.002;    0.000
210.158;  -40.038;  -36.997;    0.000
210.762;  -26.036;   -6.998;    0.000
211.366;    4.965;   23.002;    0.000
211.970;  -84.023;  -29.998;    0.000
212.574;   23.949;  -21.997;    0.000
213.177;  -18.041;  -15.997;    0.000
213.781;  -18.046;  -12.997;    0.000
214.385;  -16.032;   10.002;    0.000
214.989;  -23.041;  -18.997;    0.000
215.592;  -54.048;  -24.997;    0.000
216.196;  -12.053;  -25.996;    0.000
216.800;    6.950;    2.003;    0.000
217.403;  -17.039;   25.003;    0.000
218.007;  -14.056;   17.004;    0.000
218.610;   27.955;  -27.997;    0.000
219.214;   25.967;  -24.998;    0.000
219.817;   -9.034;  -10.998;    0.000
220.421;  -41.036;   41.002;    0.000
221.024;   19.934;   33.004;    0.000
221.628;    1.928;  -11.995;    0.000
222.231;  -22.048;  -29.997;    0.000
222.834;   -7.036;  -18.998;    0.000
223.438;   12.975;   21.002;    0.000
224.041;   13.927;    1.005;    0.000
224.644;   25.946;  -43.996;    0.000
225.248;  -41.035;   -6.998;    0.000
225.851;  -26.028;  -28.998;    0.000
226.454;  -14.048;  -44.997;    0.000
227.057;  -34.040;   -6.997;    0.000
227.660;   -5.034;   40.002;    0.000
228.263;   18.956;   -6.997;    0.000
228.866;   10.955;    4.003;    0.000
229.470;   31.962;   -3.997;    0.000
230.073;   10.953;   -4.997;    0.000
230.676;   16.978;    6.001;    0.000
231.279;  -11.051;   -4.997;    0.000
231.882;   -7.046;   -9.997;    0.000
232.484;  -28.025;   -1.998;    0.000
233.087;  -39.029;   60.002;    0.000
233.690;  -28.037;  -26.998;    0.000
234.293;  -26.036;   -5.998;    0.000
234.896;   15.950;   -6.997;    0.000
235.499;  -29.074;   23.005;    0.000
236.101;  -26.035;  -43.998;    0.000
236.704;  -33.047;   33.003;    0.000
237.307;  -13.052;  -20.997;    0.000
237.910;  -23.050;   25.003;    0.000
238.512;  -53.030;   -7.998;    0.000
239.115;   11.997;  -14.000;    0.000
239.717;  -17.057;    3.004;    0.000
240.320;  -21.018;    0.001;    0.000
240.923;  -14.048;    3.003;    0.000
241.525;  -23.057;   26.004;    0.000
242.128;    1.958;   -2.997;    0.000
242.730;  -63.034;   56.002;    0.000
243.332;  -59.011;  -13.999;    0.000
243.935;  -40.050;  -13.997;    0.000
244.537;   -2.038;  -16.997;    0.000
245.140;  -52.042;  -14.997;    0.000
245.742;  -28.049;    0.003;    0.000
246.344;    9.955;    3.003;    0.000
246.946;  -24.053;  -48.996;    0.000
247.549;   13.955;  -11.997;    0.000
248.151;   23.936;   -6.996;    0.000
248.753;   30.967;   -5.998;    0.000
249.355;  -69.063;   -1.996;    0.000
249.957;   10.971;  -15.998;    0.000
250.559;  -27.045;   44.003;    0.000
251.161;   -1.035;  -34.998;    0.000
251.764;   12.957;   -6.997;    0.000
252.366;  -39.031;   33.002;    0.000
252.968;  -13.042;  -25.997;    0.000
253.570;  -66.038;    4.003;    0.000
254.171;  -39.051;  -94.997;    0.000
254.773;  -36.031;   33.002;    0.000
255.375;   -0.052;   21.003;    0.000
255.977;  -41.014;   51.001;    0.000
256.579;   -7.031;   48.002;    0.000
257.181;   -6.041;  -20.997;    0.000
257.782;  -86.039;    3.003;    0.000
258.384;  -49.039;    3.003;    0.000
258.986;   -1.026;   34.002;    0.000
259.588;   35.965;    8.002;    0.000
260.189;  -45.047;  -25.997;    0.000
260.791;    5.954;  -19.997;    0.000
261.392;  -27.051;   10.003;    0.000
261.994;  -45.054;   25.004;    0.000
262.596;  -10.051;  -13.997;    0.000
263.197;   10.976;  -30.998;    0.000
263.799;    2.930;  -29.995;    0.000
264.400;  -50.044;  -44.997;    0.000
265.002;  -29.039;    9.003;    0.000
265.603;  -46.035;  -50.998;    0.000
266.204;  -55.029;  -20.998;    0.000
266.806;  -51.036;  -18.998;    0.000
267.407;    0.951;  -47.997;    0.000
268.008;   -3.028;   15.002;    0.000
268.610;   16.949;    9.003;    0.000
269.211;   -0.053;   -5.996;    0.000
269.812;  -10.023;    1.002;    0.000
270.413;   -2.038;  -25.997;    0.000
271.014;   -0.046;  -27.997;    0.000
271.615;   -4.026;  -32.998;    0.000
272.217;   49.970;    5.002;    0.000
272.818;    9.956;   19.003;    0.000
273.419;    4.957;  -18.997;    0.000
274.020;   -9.035;  -29.998;    0.000
274.621;  -22.058;  -41.996;    0.000
275.222;    9.971;   15.002;    0.000
275.823;  -21.050;  -25.997;    0.000
276.423;  -20.049;   -0.997;    0.000
277.024;  -31.029;   43.002;    0.000
277.625;  -32.046;  -34.997;    0.000
278.226;  -75.046;  -19.997;    0.000
278.827;  -25.052;   11.003;    0.000
279.427;   31.950;  -11.997;    0.000
280.028;    7.985;   -7.999;    0.000
280.629;  -52.043;   29.003;    0.000
281.230;    9.959;  -11.997;    0.000
281.830;  -35.057;  -59.996;    0.000
282.431;  158.957;  218.003;    0.000
283.031;   13.963;   10.002;    0.000
283.632;  -35.046;   47.003;    0.000
284.233;  -21.052;  -33.997;    0.000
284.833;   -2.053;    2.004;    0.000
285.434;  -45.037;  -68.998;    0.000
286.034;  -34.022;   -0.999;    0.000
286.634;    5.954;   14.003;    0.000
287.235;  -23.038;  -32.997;    0.000
287.835;  -21.031;  -26.998;    0.000
288.435;  -71.034;  -13.998;    0.000
289.036;  -31.026;    0.002;    0.000
289.636;   -2.034;   13.002;    0.000
290.236;  -20.077;    4.005;    0.000
290.837;  -11.010;  -36.999;    0.000
291.437;   13.976;   11.002;    0.000
292.037;  -36.016;   -7.999;    0.000
292.637;  -53.031;  -38.998;    0.000
293.237;    2.977;  -23.998;    0.000
293.837;   17.952;   50.003;    0.000
294.437;  -30.046;    0.003;    0.000
295.037;   -2.032;  -27.998;    0.000
295.637;  -25.019;  -28.999;    0.000
296.237;  -37.019;    6.001;    0.000
296.837;    9.974;   15.002;    0.000
297.437;  -51.039;   56.003;    0.000
298.037;  -16.009;   -7.999;    0.000
298.637;  -41.021;  -19.999;    0.000
299.237;   22.956;  -10.997;    0.000
299.836;   -1.021;  -27.999;    0.000
300.436;   -8.033;   -7.998;    0.000
301.036;  -10.013;   -9.999;    0.000
301.636;   -1.047;  -19.997;    0.000
302.235;    4.960;  -20.997;    0.000
302.835;  -13.011;  -59.999;    0.000
303.434;  -32.044;  -13.997;    0.000
304.034;    1.945;  -12.996;    0.000
304.634;  -53.029;  -21.998;    0.000
305.233;   -0.033;    0.002;    0.000
305.833;  -17.036;    6.002;    0.000
306.432;  -23.037;  -40.998;    0.000
307.032;   12.955;    6.003;    0.000
307.631;   -9.036;   25.002;    0.000
308.230;  -72.043;  -23.997;    0.000
308.830;  -11.047;  -42.997;    0.000
309.429;  -38.059;  -49.996;    0.000
310.028;   -0.061;  -40.996;    0.000
310.628;  -53.052;   -8.997;    0.000
311.227;   12.937;   18.004;    0.000
311.826;  -22.038;   -8.997;    0.000
312.425;   11.974;  -14.998;    0.000
313.024;   -4.049;   -3.997;    0.000
313.623;  -11.034;  -31.998;    0.000
314.223;  -12.040;   31.003;    0.000
314.822;   -6.050;  -35.997;    0.000
315.421;  -58.061;   11.004;    0.000
316.020;   12.948;   30.003;    0.000
316.619;  -58.069;  -29.995;    0.000
317.218;  -39.063;   12.004;    0.000
317.816;  -23.057;  -53.996;    0.000
318.415;  -24.034;    6.002;    0.000
319.014;  -14.058;  -18.996;    0.000
319.613;   -8.063;   21.004;    0.000
320.212;   -2.057;   54.004;    0.000
320.811;    5.919;    3.005;    0.000
321.409;   27.964;   -8.998;    0.000
322.008;   13.949;   -4.997;    0.000
322.607;  -12.073;  -56.995;    0.000
323.205;  -36.061;  -28.996;    0.000
323.804;   14.942;   -9.996;    0.000
324.403;   14.911;  -27.994;    0.000
325.001;   32.924;    4.005;    0.000
325.600;  -19.074;   30.005;    0.000
326.198;   -0.067;  -29.996;    0.000
326.797;  -29.077;  -44.995;    0.000
327.395;   14.907;  -17.994;    0.000
327.994;  -22.115;  -27.992;    0.000
328.592;    5.880;   -8.992;    0.000
329.190;   36.868;   49.009;    0.000
329.789;  -37.130;  -13.991;    0.000
330.387;  -37.137;    3.009;    0.000
330.985;  -31.130;  -11.991;    0.000
331.583;    5.851;  -39.990;    0.000
332.182;   17.834;   17.011;    0.000
332.780;   30.829;    7.011;    0.000
333.378;   56.809;  -23.987;    0.000
333.976;  -20.179;   -9.988;    0.000
334.574;   26.812;  -65.987;    0.000
335.172;    7.823;  -70.988;    0.000
335.770;  -15.169;   -3.989;    0.000
336.368;  -12.187;   36.012;    0.000
336.966;   -2.154;   13.010;    0.000
337.564;   10.837;  -40.989;    0.000
338.162;    1.845;   51.010;    0.000
338.760;   -8.124;  -15.992;    0.000
339.358;  -18.139;  -33.991;    0.000
339.956;  -44.132;  -12.991;    0.000
340.554;  -77.130;  -23.991;    0.000
341.151;  -70.133;   26.009;    0.000
341.749;   11.849;  -11.990;    0.000
342.347;    7.847;  -28.990;    0.000
342.944;    1.809;  -21.987;    0.000
343.542;   28.838;  -27.989;    0.000
344.140;  -23.165;  -42.989;    0.000
344.737;  -53.178;  -33.988;    0.000
345.335;  -28.157;   26.010;    0.000
345.932;   23.844;   -4.990;    0.000
346.530;  -80.139;   -7.991;    0.000
347.127;  -66.146;   -4.990;    0.000
347.725;  -11.168;   41.011;    0.000
348.322;  -37.143;    5.010;    0.000
348.920;   -2.152;   18.010;    0.000
349.517;  -35.157;   46.010;    0.000
350.114;   20.841;  -47.989;    0.000
350.712;  -20.145;  -80.990;    0.000
351.309;  -35.138;  -12.991;    0.000
351.906;  -54.140;  -18.991;    0.000
352.503;  -56.142;   -6.991;    0.000
353.100;    9.854;   -7.990;    0.000
353.698;  -12.124;    4.008;    0.000
354.295;   23.852;   40.010;    0.000
354.892;   38.834;   -4.989;    0.000
355.489;  -27.128;  -60.991;    0.000
356.086;  -17.161;   20.011;    0.000
356.683;   -3.141;  -27.991;    0.000
357.280;  -18.171;    6.011;    0.000
357.877;  -11.167;    0.011;    0.000
358.474;  -44.150;  -25.990;    0.000
359.070;  -21.141;  -33.991;    0.000
359.667;  -18.144;  -17.990;    0.000
360.264;    9.854;   17.010;    0.000
360.861;  -30.158;   -9.989;    0.000
361.458;  -53.127;  -22.992;    0.000
362.054;   14.843;  -42.990;    0.000
362.651;    5.871;   19.009;    0.000
363.248;  -37.129;   13.009;    0.000
363.844;    1.872;  -34.991;    0.000
364.441;  -15.138;  -22.991;    0.000
365.037;  -19.140;    1.009;    0.000
365.634;  -53.136;  -45.991;    0.000
366.230;  -39.127;  -28.992;    0.000
366.827;  -35.136;    9.009;    0.000
367.423;  -28.150;  -26.990;    0.000
368.020;  -14.136;   -8.991;    0.000
368.616;  -15.153;   -8.990;    0.000
369.213;  -36.150;   40.010;    0.000
369.809;  -36.147;    7.010;    0.000
370.405;  -62.111;  -42.993;    0.000
371.001;   -0.168;   36.011;    0.000
371.598;  -24.162;   22.011;    0.000
372.194;  -31.146;  -19.990;    0.000
372.790;  -42.125;  -41.992;    0.000
373.386;   -6.134;  -20.991;    0.000
373.982;   -8.153;    0.010;    0.000
374.578;   -3.140;  -40.991;    0.000
375.174;  -70.177;  -35.988;    0.000
375.770;  -28.154;  -38.990;    0.000
376.366;  -47.156;  -27.990;    0.000
376.962;  -53.153;    4.010;    0.000
377.558;  -24.138;  -25.991;    0.000
378.154;  -24.141;  -67.991;    0.000
378.750;  -46.154;  -24.990;    0.000
379.346;    5.849;  -25.990;    0.000
379.942;  -55.159;   12.011;    0.000
380.537;  -27.165;   35.011;    0.000
381.133;   25.845;  -51.990;    0.000
381.729;   21.872;  -65.991;    0.000
382.325;  -45.118;   33.008;    0.000
382.920;  -50.152;   16.010;    0.000
383.516;  -38.141;  -21.991;    0.000
384.111;  -40.152;  -27.990;    0.000
384.707;  -69.166;  -50.989;    0.000
385.302;   -5.161;  -18.989;    0.000
385.898;   36.850;   18.010;    0.000
386.493;  -66.163;  -22.989;    0.000
387.089;   -0.169;   36.011;    0.000
387.684;  -13.145;   13.010;    0.000
388.280;  -17.146;  -40.990;    0.000
388.875;  -20.126;   -6.992;    0.000
389.470;  -47.164;  -28.989;    0.000
390.066;  -27.151;   -7.990;    0.000
390.661;   -9.140;   31.009;    0.000
391.256;  -53.159;    0.011;    0.000
391.851;  -76.153;  -20.990;    0.000
392.446;    1.843;    4.010;    0.000
393.041;  -22.134;    0.009;    0.000
393.637;  -25.140;  -11.991;    0.000
394.232;  -21.150;   10.010;    0.000
394.827;  -39.140;    2.009;    0.000
395.422;  -33.175;    2.012;    0.000
396.017;  -64.136;   56.009;    0.000
396.612;  -33.168;   48.011;    0.000
397.206;   24.849;  -46.990;    0.000
397.801; 1141.853; 1129.010;    0.000
398.396;  -31.151;   43.010;    0.000
398.991;  -10.150;   -5.990;    0.000
399.586;  -25.163;    8.011;    0.000
400.180;  -10.148;  -22.990;    0.000
400.775;  -24.145;   23.010;    0.000
401.370;   33.873;   -9.992;    0.000
401.965;  -40.156;  -34.990;    0.000
402.559;   -5.146;  -13.990;    0.000
403.154;  -60.147;  -20.990;    0.000
403.748;  -28.134;  -37.991;    0.000
404.343;  -60.154;  -24.990;    0.000
404.937;   -8.151;  -44.990;    0.000
405.532;  -21.158;   -4.989;    0.000
406.126;   15.839;  -11.989;    0.000
406.721;   14.869;   -0.991;    0.000
407.315;  -42.150;  -49.990;    0.000
407.909;    2.855;  -41.990;    0.000
408.504;  -23.122;  -17.992;    0.000
409.098;  -39.145;  -41.990;    0.000
409.692;  -37.133;  -21.991;    0.000
410.286;  -48.136;  -12.991;    0.000
410.881;   20.856;   -6.990;    0.000
411.475;   -4.135;   -8.991;    0.000
412.069;   -6.135;   23.009;    0.000
412.663;  -11.136;  -34.991;    0.000
413.257;  -62.129;   50.009;    0.000
413.851;  -14.126;  -22.992;    0.000
414.445;  -32.143;  -17.990;    0.000
415.039;  -78.128;  -11.991;    0.000
415.633;   -0.143;  -18.990;    0.000
416.227;  -30.143;  -26.990;    0.000
416.821;   -9.148;  -32.990;    0.000
417.415;  -47.119;  -14.992;    0.000
418.008;    2.860;  -19.991;    0.000
418.602;   10.850;  -70.990;    0.000
419.196;  -33.134;   11.009;    0.000
419.790;  -25.126;  -43.992;    0.000
420.383;   27.868;  -30.991;    0.000
420.977;   -9.126;    2.008;    0.000
421.571;  -29.137;  -26.991;    0.000
422.164;   26.882;   20.008;    0.000
422.758;  -75.117;  -35.992;    0.000
423.351;   -1.131;   -2.991;    0.000
423.945;  -39.120;    7.008;    0.000
424.538;  -35.114;    9.008;    0.000
425.132;   24.858;  -19.991;    0.000
425.725;  -26.124;  -19.992;    0.000
426.318;  -35.132;   49.009;    0.000
426.912;  -40.112;   -9.993;    0.000
427.505;    7.894;   35.007;    0.000
428.098;  -20.118;   38.008;    0.000
428.692;  -63.119;   52.008;    0.000
429.285;  -42.141;  -20.991;    0.000
429.878;  -22.129;   -4.991;    0.000
430.471;  -47.107;  -39.993;    0.000
431.064;  -34.118;   -6.992;    0.000
431.657;   29.888;  -29.993;    0.000
432.250;    2.882;   22.008;    0.000
432.843;  -18.103;  -71.993;    0.000
433.436;  -18.131;    0.009;    0.000
434.029;  -42.104;  -62.993;    0.000
434.622;   24.883;  -18.992;    0.000
435.215;  -25.085;    9.006;    0.000
435.808;  -29.112;  -77.993;    0.000
436.401;  -30.098;    0.007;    0.000
436.994;  -49.116;    7.008;    0.000
437.586;    5.889;  -50.993;    0.000
438.179;  -33.101;  -26.993;    0.000
438.772;  -47.098;   23.007;    0.000
439.364;  -39.115;  -27.992;    0.000
439.957;    2.913;   -1.994;    0.000
440.550;  -43.107;  -40.993;    0.000
441.142;   18.901;   31.007;    0.000
441.735;  -34.132;    2.009;    0.000
442.327;  -38.121;   -7.992;    0.000
442.920;  -35.092;  -22.994;    0.000
443.512;  -30.107;   20.007;    0.000
444.104;  -41.114;  -37.992;    0.000
444.697;  -40.091;  -18.994;    0.000
445.289;   -5.121;   -5.992;    0.000
445.881;  -28.111;    9.007;    0.000
446.474;    2.909;  -61.994;    0.000
447.066;   10.905;  -28.994;    0.000
447.658;  -32.114;    9.008;    0.000
448.250;   -3.101;  -30.993;    0.000
448.843;  -34.104;  -52.993;    0.000
449.435;  -35.078;  -18.995;    0.000
450.027;    0.872;   26.009;    0.000
450.619;  -29.117;  -36.992;    0.000
451.211;  -14.123;  -10.992;    0.000
451.803;  -32.102;  -15.993;    0.000
452.395;  -12.095;  -10.994;    0.000
452.987;  -66.087;  -16.994;    0.000
453.579;  -51.090;  -39.994;    0.000
454.170;   -4.070;  -56.995;    0.000
454.762;  -12.079;   20.005;    0.000
455.354;  -51.088;    3.006;    0.000
455.946;  -29.102;   -9.993;    0.000
456.537;  -16.079;  -17.995;    0.000
457.129;  -58.099;   -5.993;    0.000
457.721;   22.928;    8.005;    0.000
458.312;  -38.076;  -13.995;    0.000
458.904;  -39.095;  -36.994;    0.000
459.496;   -0.100;   19.007;    0.000
460.087;  -18.106;  -50.993;    0.000
460.679;  -29.092;  -11.994;    0.000
461.270;   19.905;   15.006;    0.000
461.862;  -36.086;  -39.994;    0.000
462.453;  -59.054;   20.004;    0.000
463.044;  -19.097;  -12.994;    0.000
463.636;   16.935;   12.004;    0.000
464.227;    5.906;   20.006;    0.000
464.818;  -29.084;  -13.994;    0.000
465.409;  -58.053;  -13.996;    0.000
466.001;  -16.084;  -25.994;    0.000
466.592;   21.941;  -11.996;    0.000
467.183;  -44.067;  -17.996;    0.000
467.774;  -11.079;   -0.995;    0.000
468.365;   17.905;  -20.994;    0.000
468.956;  -40.095;  -14.994;    0.000
469.547;  -16.085;  -57.994;    0.000
470.138;   17.906;  -46.994;    0.000
470.729;  -22.103;   30.007;    0.000
471.320;  -27.079;    4.005;    0.000
471.911;   30.926;  -26.995;    0.000
472.502;  -26.106;  -20.993;    0.000
473.092;  -52.059;  -28.996;    0.000
473.683;  -17.102;  -12.993;    0.000
474.274;   -4.064;   -3.996;    0.000
474.865;  -11.083;  -26.994;    0.000
475.455;   -4.072;    8.005;    0.000
476.046;   -6.072;   48.005;    0.000
476.637;    0.931;  -19.995;    0.000
477.227;  -26.079;   -7.995;    0.000
477.818;    7.928;   -2.995;    0.000
478.408;  -54.071;   -5.995;    0.000
478.999;  -34.078;  -53.995;    0.000
479.589;  -80.091;   -9.994;    0.000
480.180;  -46.064;   -3.996;    0.000
480.770;  -34.065;  -42.996;    0.000
481.360;   19.935;  -40.996;    0.000
481.951;  -33.080;  -16.995;    0.000
482.541;  -45.097;    1.006;    0.000
483.131;   26.918;   -1.995;    0.000
483.721;  -18.060;  -16.996;    0.000
484.312;  -18.071;   26.005;    0.000
484.902;    4.932;   12.005;    0.000
485.492;  -65.050;    9.003;    0.000
486.082;   10.939;  -32.996;    0.000
486.672;   12.945;   18.004;    0.000
487.262;  -26.057;   -0.996;    0.000
487.852;   69.931;   26.005;    0.000
488.442;  -55.082;   27.005;    0.000
489.032;  -43.064;   56.004;    0.000
489.622;  -30.056;  -14.996;    0.000
490.212;   28.934;   40.004;    0.000
490.801;   37.943;  -74.996;    0.000
491.391;  -18.066;   -5.996;    0.000
491.981;   19.940;  -49.996;    0.000
492.571;  -41.046;  -20.997;    0.000
493.160;   27.924;  -65.995;    0.000
493.750;  -21.074;  -24.995;    0.000
494.340;   -0.069;  -34.995;    0.000
494.929;  -38.051;   19.003;    0.000
495.519;  -11.076;   24.005;    0.000
496.108;    3.927;  -22.995;    0.000
496.698;   42.907;   -3.994;    0.000
497.287;   23.929;   19.005;    0.000
497.876;  -16.065;   -1.996;    0.000
498.466;  -42.063;   10.004;    0.000
499.055;   28.925;  -66.995;    0.000
499.645;   -7.060;  -49.996;    0.000
500.234;   -5.070;   -5.995;    0.000
500.823;  -52.067;  -50.996;    0.000
501.412;  -46.082;  -22.995;    0.000
502.001;  -60.075;  -44.995;    0.000
502.591;   27.934;   -4.996;    0.000
503.180;  -51.069;    7.005;    0.000
503.769;  -55.068;  -34.995;    0.000
504.358;   14.936;    7.004;    0.000
504.947;    6.933;  -17.996;    0.000
505.536;    5.929;   -5.995;    0.000
506.125;   -6.068;  -31.995;    0.000
506.714;   -0.068;  -26.995;    0.000
507.303;  -35.086;  -17.994;    0.000
507.891;    0.915;   17.006;    0.000
508.480;  -16.062;    3.004;    0.000
509.069;    6.907;  -43.994;    0.000
509.658;   12.940;   39.004;    0.000
510.246;   39.916;    7.006;    0.000
510.835;   -4.075;  -28.995;    0.000
511.424;  -40.069;  -61.995;    0.000
512.012;  -19.036;  -17.998;    0.000
512.601;  -30.074;   48.005;    0.000
513.189;    4.924;  -11.995;    0.000
513.778;  -24.079;  -19.995;    0.000
514.366;  -55.060;    7.004;    0.000
514.955;   37.951;   -6.997;    0.000
515.543;   27.935;   26.004;    0.000
516.132;    7.926;  -13.995;    0.000
516.720;    8.938;   30.004;    0.000
517.308;   -0.060;  -23.996;    0.000
517.896;   -0.057;  -30.996;    0.000
518.485;  -30.063;    7.004;    0.000
519.073;   18.923;  -60.995;    0.000
519.661;    5.947;    7.004;    0.000
520.249;  -17.057;  -11.996;    0.000
520.837;   23.931;  -46.995;    0.000
521.425;   27.945;   10.004;    0.000
522.013;   38.944;   18.004;    0.000
522.601;    5.936;  -29.996;    0.000
523.189;   62.939;  -43.996;    0.000
523.777;   12.930;  -40.995;    0.000
524.365;   -4.079;  -50.995;    0.000
524.953;   32.948;  -26.997;    0.000
525.541;   68.929;    3.005;    0.000
526.129;   24.934;  -13.996;    0.000
526.716;   35.960;  -81.997;    0.000
527.304;   46.946;    7.004;    0.000
527.892;   -6.072;  -14.995;    0.000
528.479;   43.948;  -29.997;    0.000
529.067;   35.931;    1.005;    0.000
529.655;   30.953;  -12.997;    0.000
530.242;   46.931;   -9.995;    0.000
530.830;   83.950;   47.003;    0.000
531.417;  109.945;  -30.996;    0.000
532.005;   90.937;   15.004;    0.000
532.592;  140.959;    2.003;    0.000
533.179;  136.958;   27.003;    0.000
533.767;  141.935;   34.004;    0.000
534.354;  109.944;    9.004;    0.000
534.941;  212.945;   26.004;    0.000
535.529;  165.960;  -28.997;    0.000
536.116;  179.928;   -1.995;    0.000
536.703;  199.963;  -18.998;    0.000
537.290;  220.952;  -76.997;    0.000
537.877;  255.952;  -26.997;    0.000
538.464;  320.941;   56.004;    0.000
539.051;  344.953;  -20.997;    0.000
539.638;  383.962;  -36.997;    0.000
540.225;  491.947;  -15.996;    0.000
540.812;  669.957;  -28.997;    0.000
541.399;  719.931;    4.005;    0.000
541.986;  793.947;   50.004;    0.000
542.573;  960.952;   10.003;    0.000
543.160; 1095.938;    8.004;    0.000
543.746; 1263.968;  -25.998;    0.000
544.333; 1311.951;   14.003;    0.000
544.920; 1533.967;    5.002;    0.000
545.506; 1673.949;   13.003;    0.000
546.093; 1698.940;    6.004;    0.000
546.680; 1803.942;  -26.996;    0.000
547.266; 1912.962;   23.003;    0.000
547.853; 1876.957;  -18.997;    0.000
548.439; 1959.964;  -26.998;    0.000
549.025; 1888.965;  -56.998;    0.000
549.612; 1930.940;   -0.996;    0.000
550.198; 1951.958;   24.003;    0.000
550.785; 1975.948;  -32.997;    0.000
551.371; 1801.978;   17.001;    0.000
551.957; 1909.967;  -39.998;    0.000
552.543; 1710.926;  -29.995;    0.000
553.130; 1650.943;  -11.996;    0.000
553.716; 1453.952;  -39.997;    0.000
554.302; 1351.977;   -4.998;    0.000
554.888; 1176.976;    2.002;    0.000
555.474;  990.958;  -42.997;    0.000
556.060;  878.946;   12.004;    0.000
556.646;  773.955;  -59.997;    0.000
557.232;  683.953;  -11.997;    0.000
557.818;  629.965;   -6.998;    0.000
558.404;  432.957;  -24.997;    0.000
558.990;  322.928;   -7.995;    0.000
559.576;  240.943;   72.004;    0.000
560.161;  142.929;  -53.995;    0.000
560.747;   66.939;  -44.996;    0.000
561.333;   55.957;   -7.997;    0.000
561.918;   44.942;  -23.996;    0.000
562.504;   87.961;  -33.997;    0.000
563.090;    2.953;   -6.997;    0.000
563.675;  110.956;    4.003;    0.000
564.261;   67.948;   -9.997;    0.000
564.846;   33.953;  -27.997;    0.000
565.432;    7.947;   29.004;    0.000
566.017;   12.950;  -18.997;    0.000
566.603;    2.963;  -19.998;    0.000
567.188;   64.947;  -62.996;    0.000
567.773;  -25.026;  -13.998;    0.000
568.359;   40.969;  -18.998;    0.000
568.944;    7.959;    3.003;    0.000
569.529;    8.956;  -13.997;    0.000
570.114;   21.976;   -2.998;    0.000
570.699;  -13.040;  -22.997;    0.000
571.284;   27.933;    3.004;    0.000
571.870;   50.976;   -7.998;    0.000
572.455;    7.965;  -22.998;    0.000
573.040;   31.938;  -86.996;    0.000
573.625;   40.961;   11.003;    0.000
574.209;   10.956;  -15.997;    0.000
574.794;   30.930;  -41.995;    0.000
575.379;  -27.040;  -22.997;    0.000
575.964;   43.975;  -18.998;    0.000
576.549;   -8.034;   12.002;    0.000
577.134;   14.972;  -31.998;    0.000
577.718;   10.963;   -2.998;    0.000
578.303;  -30.050;  -18.997;    0.000
578.888;   32.977;  -36.998;    0.000
579.472;   41.951;    8.003;    0.000
580.057;   28.941;    4.004;    0.000
580.641;   10.961;  -36.997;    0.000
581.226;   43.961;  -14.997;    0.000
581.810;  -16.047;   -5.997;    0.000
582.395;   31.962;  -15.997;    0.000
582.979;   -6.060;  -27.996;    0.000
583.564;  -21.065;   58.004;    0.000
584.148;  -16.051;  -14.997;    0.000
584.732;    8.937;  -26.996;    0.000
585.317;   33.950;   12.003;    0.000
585.901;   -4.062;  -45.996;    0.000
586.485;  -17.044;   -4.997;    0.000
587.069;  -49.043;  -34.997;    0.000
587.653;   47.957;   15.003;    0.000
588.237;    5.962;   14.003;    0.000
588.821;    5.959;  -18.997;    0.000
589.405;  268.965;  174.002;    0.000
589.989;  -21.054;    1.004;    0.000
590.573;   -1.028;  -19.998;    0.000
591.157;   24.944;    5.004;    0.000
591.741;   27.960;   -8.997;    0.000
592.325;   -4.034;   25.002;    0.000
592.909;   18.943;  -42.996;    0.000
593.492;   38.967;  -35.998;    0.000
594.076;   -6.052;  -50.997;    0.000
594.660;   -8.034;   -5.998;    0.000
595.244;   16.969;  -12.998;    0.000
595.827;   32.954;  -18.997;    0.000
596.411;   -5.019;  -19.999;    0.000
596.994;   -1.031;   21.002;    0.000
597.578;   10.964;   21.002;    0.000
598.161;   19.937;   18.004;    0.000
598.745;  -12.038;  -68.997;    0.000
599.328;   -9.049;   10.003;    0.000
599.911;  -11.053;  -74.996;    0.000
600.495;   14.942;  -46.996;    0.000
601.078;    2.967;  -10.998;    0.000
601.661;  -20.034;   52.002;    0.000
602.245;   40.971;    1.002;    0.000
602.828;   49.970;  -44.998;    0.000
603.411;    4.967;   -2.998;    0.000
603.994;  -31.082;   47.005;    0.000
604.577;   28.961;    6.003;    0.000
605.160;  -10.047;    1.003;    0.000
605.743;   19.960;  -43.997;    0.000
606.326;   -8.036;   -4.998;    0.000
606.909;   -6.053;    8.004;    0.000
607.492;  -50.048;  -12.997;    0.000
608.075;   -4.032;  -16.998;    0.000
608.658;    3.964;  -19.998;    0.000
609.240;   22.966;  -21.998;    0.000
609.823;   -5.044;  -25.997;    0.000
610.406;   27.958;  -59.997;    0.000
610.989;    1.963;  -17.998;    0.000
611.571;   24.976;   10.002;    0.000
612.154;   16.958;  -24.997;    0.000
612.736;  -23.023;  -20.998;    0.000
613.319;   -8.041;   -1.997;    0.000
613.901;   -2.036;  -16.998;    0.000
614.484;  -20.046;   -2.997;    0.000
615.066;   31.938;   -7.996;    0.000
615.649;  -36.018;  -45.999;    0.000
616.231;    4.960;  -22.997;    0.000
616.813;   20.930;   22.005;    0.000
617.396;   -9.087;  -82.994;    0.000
617.978;    5.898;   20.007;    0.000
618.560;  -13.064;  -28.996;    0.000
619.142;  -52.075;  -10.995;    0.000
619.724;  -36.074;  -46.995;    0.000
620.306;  -47.057;   15.004;    0.000
620.889;   -0.048;  -43.997;    0.000
621.471;  -35.051;   44.003;    0.000
622.053;   -3.047;  -10.997;    0.000
622.635;  -36.060;   17.004;    0.000
623.216;  -32.030;  -63.998;    0.000
623.798;   -4.062;    8.004;    0.000
624.380;   15.959;  -63.997;    0.000
624.962;  -26.060;   19.004;    0.000
625.544;  -93.055;   33.004;    0.000
626.125;   -4.033;  -31.998;    0.000
626.707;   -7.048;  -15.997;    0.000
627.289;  -28.079;  -33.995;    0.000
627.870;  -16.050;   -9.997;    0.000
628.452;   -7.048;   -2.997;    0.000
629.034;   36.945;    8.004;    0.000
629.615;   -2.056;  -45.996;    0.000
630.197;   22.946;  -64.996;    0.000
630.778;    9.957;  -34.997;    0.000
631.359;   59.935;  -22.996;    0.000
631.941;   45.959;   24.003;    0.000
632.522;   21.965;  -34.998;    0.000
633.103;   42.935;  -55.996;    0.000
633.685;   39.940;  -22.996;    0.000
634.266;   21.944;  -42.996;    0.000
634.847;   37.938;   -5.996;    0.000
635.428;    2.919;    1.005;    0.000
636.009;   14.953;    0.003;    0.000
636.590;  -16.052;  -78.997;    0.000
637.171;  -28.093;  -82.994;    0.000
637.752;   28.933;  -32.996;    0.000
638.333;   34.931;  -62.995;    0.000
638.914;  -69.063;    8.004;    0.000
639.495;   22.917;  -40.994;    0.000
640.076;  -30.058;  -20.996;    0.000
640.657;  -84.058;  -73.996;    0.000
641.238;  -51.058;   17.004;    0.000
641.818;    4.942;  -21.996;    0.000
642.399;    8.942;  -51.996;    0.000
642.980;    3.942;   10.004;    0.000
643.560;  -42.057;  -46.996;    0.000
644.141;  -38.057;  -36.996;    0.000
644.721;   -8.057;   -4.996;    0.000
645.302;   55.943;  -27.996;    0.000
645.882;  -60.057;   21.004;    0.000
646.463;  -62.057;  -10.996;    0.000
647.043;    6.943;  -39.996;    0.000
647.624;  -53.056;  -25.996;    0.000
648.204;  -24.056;   12.004;    0.000
648.784;    4.944;  -10.996;    0.000
649.365;  -23.056;  -12.996;    0.000
649.945;   -7.056;  -11.996;    0.000
650.525;  -33.056;  -36.996;    0.000
651.105;  -21.056;  -23.996;    0.000
651.685;  -48.055;  -26.996;    0.000
652.265;  -12.055;   24.004;    0.000
652.845;    7.945;  -17.996;    0.000
653.425;  -51.055;   46.004;    0.000
654.005;   30.945;   -1.996;    0.000
654.585;    6.945;  -50.996;    0.000
655.165;   13.945;  -33.996;    0.000
655.745;  -69.054;   -4.996;    0.000
656.325;  -10.054;  -44.996;    0.000
656.905;  -11.054;  -56.996;    0.000
657.484;   26.946;    1.004;    0.000
658.064;  -34.054;   -2.996;    0.000
658.644;  -55.054;  -57.996;    0.000
659.223;  -26.054;  -49.996;    0.000
659.803;   -0.053;  -27.996;    0.000
660.382;    6.947;  -28.996;    0.000
660.962;  -31.053;  -78.996;    0.000
661.541;  -52.053;  -30.996;    0.000
662.121;  -33.053;  -62.996;    0.000
662.700;   -7.053;  -27.996;    0.000
663.280;   18.947;  -61.996;    0.000
663.859;  -24.052;    3.003;    0.000
664.438;  -64.052;   25.003;    0.000
665.017;  -27.052;  -44.997;    0.000
665.597;   -2.052;    2.003;    0.000
666.176;  -11.052;    7.003;    0.000
666.755;    3.948;   -9.997;    0.000
667.334;  -25.052;  -40.997;    0.000
667.913;   29.949;  -23.997;    0.000
668.492;   29.949;   -2.997;    0.000
669.071;  -20.051;  -37.997;    0.000
669.650;  -17.051;  -70.997;    0.000
670.229;  -43.051;  -93.997;    0.000
670.808;  -24.051;  -17.997;    0.000
671.387;  -39.051;  -14.997;    0.000
671.965;  -37.050;   -8.997;    0.000
672.544;  -15.050;  -46.997;    0.000
673.123;  -72.050;  -34.997;    0.000
673.702;  -36.050;  -40.997;    0.000
674.280;   -4.050;    9.003;    0.000
674.859;  -23.050;  -17.997;    0.000
675.437;  -66.050;  -10.997;    0.000
676.016;  -52.049;   11.003;    0.000
676.594;   24.951;  -65.997;    0.000
677.173;  -24.049;  -14.997;    0.000
677.751;  -92.049;    1.003;    0.000
678.330;    0.951;  -26.997;    0.000
678.908;  -19.049;  -17.997;    0.000
679.486;   -4.049;  -34.997;    0.000
680.065;  -31.048;    1.003;    0.000
680.643;  -50.048;  -76.997;    0.000
681.221;  -10.048;  -16.997;    0.000
681.799;   -2.048;  -30.997;    0.000
682.377;   -3.048;  -34.997;    0.000
682.955;  -28.048;  -52.997;    0.000
683.533;   -0.048;   -7.997;    0.000
684.111;   22.953;  -59.997;    0.000
684.689;    3.953;  -14.997;    0.000
685.267;   45.953;  -20.997;    0.000
685.845;   54.953;  -35.997;    0.000
686.423;    5.953;    8.003;    0.000
687.001;   -9.047;  -55.997;    0.000
687.579;   25.953;    7.003;    0.000
688.156;    1.954;  -17.997;    0.000
688.734;   30.954;  -25.997;    0.000
689.312;   45.954;  -47.997;    0.000
689.889;   20.954;  -35.997;    0.000
690.467;   59.954;  -37.997;    0.000
691.044;   36.954;  -48.997;    0.000
691.622;    0.954;   31.003;    0.000
692.199;   34.955;   -3.997;    0.000
692.777;   25.955;  -35.997;    0.000
693.354;   33.955;    5.003;    0.000
693.932;   13.955;   -9.997;    0.000
694.509;   21.955;  -39.997;    0.000
695.086;   10.955;  -33.997;    0.000
695.663;    0.955;  -39.997;    0.000
696.241;   41.956;  -66.997;    0.000
696.818;  -29.044;  -74.997;    0.000
697.395;   15.956;  -33.997;    0.000
697.972;   52.956;  -16.997;    0.000
698.549;    5.956;  -67.997;    0.000
699.126;  -35.044;  -18.997;    0.000
699.703;   16.956;  -16.997;    0.000
700.280;   43.957;    3.003;    0.000
700.857;   51.957;   10.003;    0.000
701.434;   20.957;  -45.997;    0.000
702.010;   55.957;   -8.997;    0.000
702.587;   31.957;  -53.997;    0.000
703.164;   -3.043;   20.003;    0.000
703.741;   19.957;  -16.997;    0.000
704.317;    1.958;  -44.997;    0.000
704.894;   11.958;  -33.997;    0.000
705.471;   56.958;  -24.997;    0.000
706.047;   49.958;  -25.997;    0.000
706.624;   54.958;   -1.997;    0.000
707.200;   54.958;  -35.997;    0.000
707.776;   48.958;  -40.997;    0.000
708.353;  -36.041;  -93.997;    0.000
708.929;   -4.041;    5.003;    0.000
709.506;   20.959;   -4.997;    0.000
710.082;  -41.041;  -57.997;    0.000
710.658;    3.959;  -33.997;    0.000
711.234;   54.959;  -10.997;    0.000
711.810;    1.959;   -0.997;    0.000
712.387;   13.960;  -39.997;    0.000
712.963;  -11.040;   -8.997;    0.000
713.539;   34.960;   23.003;    0.000
714.115;  -35.040;  -54.997;    0.000
714.691;   23.960;   -7.997;    0.000
715.267;   22.960;  -79.997;    0.000
715.842;    9.960;   -1.997;    0.000
716.418;  -13.039;  -15.997;    0.000
716.994;  -42.039;  -38.997;    0.000
717.570;   -8.039;  -21.997;    0.000
718.146;   -7.039;  -59.997;    0.000
718.721;   38.961;    1.003;    0.000
719.297;   -9.039;  -31.997;    0.000
719.873;  -85.039;  -40.997;    0.000
720.448;  -13.038;   -2.997;    0.000
721.024;  -22.038;  -47.997;    0.000
721.599;  -11.038;    1.003;    0.000
722.175;  -59.038;   12.003;    0.000
722.750;  -61.038;  -99.997;    0.000
723.325;   -5.038;   19.003;    0.000
723.901;  -48.038;  -69.997;    0.000
724.476;   -8.037;  -10.998;    0.000
725.051;    9.963;  -21.998;    0.000
725.627;   -5.037;   26.002;    0.000
726.202;  -19.037;  -27.998;    0.000
726.777;  -36.037;    1.002;    0.000
727.352;    2.963;  -28.998;    0.000
727.927;  -11.037;  -48.998;    0.000
728.502;  -39.036;  -52.998;    0.000
729.077;  -12.036;   -3.998;    0.000
729.652;   18.964;   -2.998;    0.000
730.227;  -23.036;  -35.998;    0.000
730.802;  -20.036;  -55.998;    0.000
731.377;  -38.036;    4.002;    0.000
731.951;   -5.036;  -29.998;    0.000
732.526;  -73.035;  -36.998;    0.000
733.101;    5.965;    4.002;    0.000
733.676;   15.965;  -11.998;    0.000
734.250;  -16.035;  -21.998;    0.000
734.825;    6.965;  -14.998;    0.000
735.399;  -23.035;  -39.998;    0.000
735.974;  -73.035;  -29.998;    0.000
736.548;  -41.034;  -37.998;    0.000
737.123;   -6.034;  -62.998;    0.000
737.697;  -29.034;   -6.998;    0.000
738.272;  -40.034;   28.002;    0.000
738.846;  -55.034;  -22.998;    0.000
739.420;  -19.034;  -68.998;    0.000
739.994;   13.966;  -42.998;    0.000
740.569;  -43.033;  -24.998;    0.000
741.143;  -19.033;   -5.998;    0.000
741.717;  -18.033;  -40.998;    0.000
742.291;   -0.033;  -25.998;    0.000
742.865;   -3.033;   -4.998;    0.000
743.439;   19.967;  -47.998;    0.000
744.013;  -12.033;   37.002;    0.000
744.587;   35.968;  -45.998;    0.000
745.161;    3.968;  -60.998;    0.000
745.735;  -16.032;   -3.998;    0.000
746.308;   21.968;  -17.998;    0.000
746.882;    4.968;  -78.998;    0.000
747.456;    1.968;    1.002;    0.000
748.030;    8.968;  -19.998;    0.000
748.603;    3.969;  -51.998;    0.000
749.177;  -26.031;  -24.998;    0.000
749.751;   49.969;  -22.998;    0.000
750.324;  -38.031;  -72.998;    0.000
750.898;   37.969;  -21.998;    0.000
751.471;   22.969;   40.002;    0.000
752.044;    6.969;  -45.998;    0.000
752.618;   -6.030;  -42.998;    0.000
753.191;   -7.030;  -21.998;    0.000
753.764;  -26.030;  -50.998;    0.000
754.338;   22.970;  -49.998;    0.000
754.911;  -21.030;    1.002;    0.000
755.484;   24.970;  -38.998;    0.000
756.057;   13.970;  -52.998;    0.000
756.630;  -25.029;  -48.998;    0.000
757.203;   34.971;  -18.998;    0.000
757.776;  -41.029;  -16.998;    0.000
758.349;   -0.029;  -62.998;    0.000
758.922;  -39.029;  -59.998;    0.000
759.495;  -11.029;  -81.998;    0.000
760.068;  -23.029;  -62.998;    0.000
760.641;  -25.028;  -45.998;    0.000
761.214;   23.972;  -18.998;    0.000
761.786;   27.972;  -53.998;    0.000
762.359;  -22.028;  -10.998;    0.000
762.932;   57.972;    3.002;    0.000
763.504;   18.972;  -10.998;    0.000
764.077;    0.972;  -14.998;    0.000
764.649;   37.973;  -26.998;    0.000
765.222;   15.973;  -80.998;    0.000
765.794;    6.973;   18.002;    0.000
766.367;   30.973;  -76.998;    0.000
766.939;    5.973;   -8.998;    0.000
767.511;  -28.027;  -52.998;    0.000
768.084;   11.973;  -63.998;    0.000
768.656;   34.974;  -54.998;    0.000
769.228;   24.974;    6.002;    0.000
769.800;   -4.026; -103.998;    0.000
770.373;   -2.026;  -15.998;    0.000
770.945;   32.974;  -29.998;    0.000
771.517;   22.974;  -50.998;    0.000
772.089;   35.974;    1.002;    0.000
772.661;    1.975;   -7.998;    0.000
773.233;    3.975;  -49.998;    0.000
773.805;  -20.025;   -8.998;    0.000
774.376;   10.975;  -64.998;    0.000
774.948;    3.975;  -44.998;    0.000
775.520;   37.975;  -33.998;    0.000
776.092;   47.975;   27.002;    0.000
776.663;   22.976;  -39.998;    0.000
777.235;   42.976;  -41.998;    0.000
777.807;   44.976;   -9.998;    0.000
778.378;   34.976;  -12.998;    0.000
778.950;   16.976;  -13.998;    0.000
779.521;   32.976;  -47.998;    0.000
780.093;   12.976;  -18.998;    0.000
780.664;    9.977;   19.002;    0.000
781.235;    0.977;  -21.998;    0.000
781.807;  -22.023;    1.002;    0.000
782.378;   55.977;    4.002;    0.000
782.949;   -8.023;  -22.998;    0.000
783.521;    1.977;    8.002;    0.000
784.092;   31.977;  -18.998;    0.000
784.663;  -46.022;   -2.999;    0.000
785.234;   -6.022;  -49.999;    0.000
785.805;    8.978;   -0.999;    0.000
786.376;  -33.022;  -25.999;    0.000
786.947;   -7.022;  -16.999;    0.000
787.518;   30.978;    5.001;    0.000
788.089;  -82.022;  -42.999;    0.000
788.660;  -18.021;   -3.999;    0.000
789.230;   -5.021;  -36.999;    0.000
789.801;   17.979;    8.001;    0.000
790.372;  -43.021;  -26.999;    0.000
790.943;   36.979;   11.001;    0.000
791.513;   -8.021;  -91.999;    0.000
792.084;   24.979;   54.001;    0.000
792.654;  -44.020;  -17.999;    0.000
793.225;  -26.020;   13.001;    0.000
793.795;   45.980;  -65.999;    0.000
794.366;   41.980;  -35.999;    0.000
794.936;   -6.020;    7.001;    0.000
795.507;   23.980;  -48.999;    0.000
796.077;  -48.020;    5.001;    0.000
796.647;   -1.019;  -10.999;    0.000
797.217;    1.981;  -35.999;    0.000
797.788;   26.981;  -21.999;    0.000
798.358;   12.981;  -29.999;    0.000
798.928;  -18.019;  -68.999;    0.000
799.498;  -25.019;  -38.999;    0.000
800.068;  -17.019;  -21.999;    0.000
800.638;  -25.018;  -20.999;    0.000
801.208;    1.982;  -32.999;    0.000
801.778;   25.982;   -1.999;    0.000
802.348;  -65.018;  -46.999;    0.000
802.917;   -9.018;  -50.999;    0.000
803.487;   22.982;  -19.999;    0.000
804.057;   -2.018;  -39.999;    0.000
804.627;    4.983;  -36.999;    0.000
805.196;   14.983;   -6.999;    0.000
805.766;  -23.017;  -26.999;    0.000
806.335;   12.983;  -35.999;    0.000
806.905;  -11.017;   -5.999;    0.000
807.475;  -20.017;  -41.999;    0.000
808.044;   -3.017;   -6.999;    0.000
808.613;  -26.016;  -50.999;    0.000
809.183;  -34.016;  -21.999;    0.000
809.752;   -2.016;  -56.999;    0.000
810.321;   27.984;  -40.999;    0.000
810.891;   11.984;  -76.999;    0.000
811.460;  -21.016;  -20.999;    0.000
812.029;   57.984;   -4.999;    0.000
812.598;   14.985;  -19.999;    0.000
813.167;  -63.015;  -39.999;    0.000
813.736;   51.985;   -5.999;    0.000
814.305;   14.985; -111.999;    0.000
814.874;   24.985;  -13.999;    0.000
815.443;   32.985;   -1.999;    0.000
816.012;   17.985;  -29.999;    0.000
816.581;  -21.014;  -30.999;    0.000
817.150;  -25.014;  -45.999;    0.000
817.718;   -2.014;  -50.999;    0.000
818.287;   23.986;  -74.999;    0.000
818.856;   29.986;  -24.999;    0.000
819.424;  -13.014;  -32.999;    0.000
819.993;   14.986;  -32.999;    0.000
820.562;  -11.013;  -46.999;    0.000
821.130;    4.987;   -0.999;    0.000
821.698;   -3.013;  -35.999;    0.000
822.267;   52.987;  -37.999;    0.000
822.835;   16.987;  -41.999;    0.000
823.404;  -14.013;  -58.999;    0.000
823.972;    9.987;  -43.999;    0.000
824.540;  -18.012;  -31.999;    0.000
825.108;   27.988;   31.001;    0.000
825.677;  -40.012;    3.001;    0.000
826.245;   16.988;   17.001;    0.000
826.813;   13.988;  -27.999;    0.000
827.381;   -7.012;  -13.999;    0.000
827.949;    8.988;  -35.999;    0.000
828.517;   -4.011;  -25.999;    0.000
829.085;  -48.011;  -44.999;    0.000
829.653;   22.989;  -23.999;    0.000
830.220;   23.989;  -32.999;    0.000
830.788;   -2.011;  -35.999;    0.000
831.356;   -9.011;  -66.999;    0.000
831.924;  -26.011;   38.001;    0.000
832.491;  -29.010;   10.001;    0.000
833.059;  -40.010;    6.001;    0.000
833.627;  -28.010;  -83.999;    0.000
834.194;  -21.010;  -72.999;    0.000
834.762;  -54.010;   -4.999;    0.000
835.329;  -35.010;  -34.999;    0.000
835.897;   12.990;    1.001;    0.000
836.464;    5.991;  -29.999;    0.000
837.031;   20.991;   -5.999;    0.000
837.599;    0.991;  -61.999;    0.000
838.166;   17.991;   23.001;    0.000
838.733;   11.991;  -54.999;    0.000
839.300;   37.991;  -64.999;    0.000
839.867;   -6.009;  -34.999;    0.000
840.434;   69.992;  -30.999;    0.000
841.001;   32.992;  -57.999;    0.000
841.568;   42.992;  -30.999;    0.000
842.135;   10.992;  -51.999;    0.000
842.702;   11.992;   29.001;    0.000
843.269;   48.992;  -56.999;    0.000
843.836;   37.992;  -10.999;    0.000
844.403;  -15.007;   33.000;    0.000
844.970;   28.993;  -26.000;    0.000
845.536;  -14.007;  -45.000;    0.000
846.103;  -14.007;  -50.000;    0.000
846.670;    0.993;  -39.000;    0.000
847.236;  -18.007;  -39.000;    0.000
847.803;   29.993;  -39.000;    0.000
848.369;   39.994;    2.000;    0.000
848.936;   22.994;  -63.000;    0.000
849.502;   -6.006;    3.000;    0.000
850.069;   16.994;  -13.000;    0.000
850.635;   -4.006;  -55.000;    0.000
851.201;   39.994;  -17.000;    0.000
851.767;   -3.006;  -15.000;    0.000
852.334;    6.995;  -18.000;    0.000
852.900;   29.995;   20.000;    0.000
853.466;   -8.005;  -67.000;    0.000
854.032;   36.995;  -48.000;    0.000
854.598;   65.995;  -55.000;    0.000
855.164;   66.995;  -25.000;    0.000
855.730;   22.995;   -6.000;    0.000
856.296;   10.996;   13.000;    0.000
856.862;   33.996;   20.000;    0.000
857.428;   25.996;    1.000;    0.000
857.993;    2.996;  -34.000;    0.000
858.559;   24.996;   11.000;    0.000
859.125;    0.996;  -33.000;    0.000
859.690;   35.996;  -50.000;    0.000
860.256;   22.997;   -5.000;    0.000
860.822;  -13.003;  -69.000;    0.000
861.387;   21.997;  -24.000;    0.000
861.953;   27.997;  -62.000;    0.000
862.518;   29.997;  -67.000;    0.000
863.083;    0.997;  -64.000;    0.000
863.649;   28.997;  -20.000;    0.000
864.214;   29.998;  -34.000;    0.000
864.779;   31.998;  -77.000;    0.000
865.345;    5.998;  -13.000;    0.000
865.910;   55.998;   -8.000;    0.000
866.475;    7.998;  -14.000;    0.000
867.040;   38.998;  -55.000;    0.000
867.605;    6.998;  -46.000;    0.000
868.170;    6.999;   10.000;    0.000
868.735;   12.999;  -40.000;    0.000
869.300;  -12.001;   -9.000;    0.000
869.865;   54.999;   27.000;    0.000
870.430;    0.999;  -25.000;    0.000
870.995;   54.999;   43.000;    0.000
871.559;   11.999;  -18.000;    0.000
872.124;   33.000;  -12.000;    0.000
872.689;   15.000;  -84.000;    0.000
873.253;  -20.000;  -20.000;    0.000
873.818;    5.000;  -38.000;    0.000
874.382;   29.000;  -47.000;    0.000
874.947;   16.000;  -58.000;    0.000
875.511;   47.000;  -32.000;    0.000
876.076;   30.000;  -58.000;    0.000
876.640;   32.000;  -33.000;    0.000
877.205;   -8.000;  -33.000;    0.000
877.769;   45.000;  -37.000;    0.000
878.333;   25.000;  -74.000;    0.000
878.897;   40.000;  -39.000;    0.000
879.461;   14.000;  -34.000;    0.000
880.026;   -1.000;   26.000;    0.000
880.590;   -4.000;  -24.000;    0.000
881.154;  -16.000;  -39.000;    0.000
881.718;   26.000;   -7.000;    0.000
882.282;   54.000;  -19.000;    0.000
882.846;   53.000;  -17.000;    0.000
883.409;  -21.000;  -44.000;    0.000
883.973;   70.000;   25.000;    0.000
884.537;   18.000;  -29.000;    0.000
885.101;   33.000;  -33.000;    0.000
885.664;   -4.000;  -30.000;    0.000
886.228;   37.000;  -22.000;    0.000
886.792;   12.000;  -23.000;    0.000
887.355;   43.000;    6.000;    0.000
887.919;   16.000;   -6.000;    0.000
888.482;  -14.000;  -25.000;    0.000
889.046;   -4.000;  -15.000;    0.000
889.609;   38.000;  -37.000;    0.000
890.172;   43.000;   -3.000;    0.000
890.736;   22.000;  -11.000;    0.000
891.299;   -4.000;  -54.000;    0.000
891.862;    6.000;  -27.000;    0.000
892.425;    8.000;  -84.000;    0.000
892.988;   15.000;  -43.000;    0.000
893.552;   30.000;  -33.000;    0.000
894.115;   36.000;  -17.000;    0.000
894.678;   14.000;    9.000;    0.000
895.241;   -6.000;   18.000;    0.000
895.803;   65.000;  -11.000;    0.000
896.366;   27.000;  -20.000;    0.000
896.929;   89.000;  -40.000;    0.000
897.492;   15.000;  -85.000;    0.000
898.055;   22.000;  -33.000;    0.000
898.617;   20.000;  -35.000;    0.000
899.180;   47.000;  -50.000;    0.000
899.743;   64.000;   20.000;    0.000
900.305;   51.000;   36.000;    0.000
900.868;   77.000;   -6.000;    0.000
901.430;  -19.000;  -13.000;    0.000
901.993;   45.000;   17.000;    0.000
902.555;   49.000;  -22.000;    0.000
903.117;   93.000;  -40.000;    0.000
903.680;   30.000;  -35.000;    0.000
904.242;   96.000;  -20.000;    0.000
904.804;   66.000;    9.000;    0.000
905.366;  -32.000;   11.000;    0.000
905.929;   32.000;   18.000;    0.000
906.491;   27.000;  -61.000;    0.000
907.053;    7.000;  -28.000;    0.000
907.615;   -5.000;  -31.000;    0.000
908.177;   17.000;  -38.000;    0.000
908.739;   18.000;  -39.000;    0.000
909.300;   19.000;  -18.000;    0.000
909.862;   83.000;  -34.000;    0.000
910.424;   15.000;  -49.000;    0.000
910.986;  -12.000;  -35.000;    0.000
911.547;   10.000;  -39.000;    0.000
912.109;   -7.000;   19.000;    0.000
912.671;   51.000;  -55.000;    0.000
913.232;   23.000;   -8.000;    0.000
913.794;   45.000;  -69.000;    0.000
914.355;   43.000;  -23.000;    0.000
914.917;   34.000;  -28.000;    0.000
915.478;   13.000;  -29.000;    0.000
916.039;   65.000;   -4.000;    0.000
916.601;    8.000;  -50.000;    0.000
917.162;   49.000;  -35.000;    0.000
917.723;  -19.000;   -2.000;    0.000
918.284;   20.000;  -50.000;    0.000
918.845;   14.000;   -2.000;    0.000
919.407;   55.000;  -33.000;    0.000
919.968;   16.000;  -29.000;    0.000
920.529;   52.000;  -39.000;    0.000
921.090;   12.000;  -23.000;    0.000
921.650;   74.000;  -41.000;    0.000
922.211;  -13.000;  -44.000;    0.000
922.772;  -23.000;   38.000;    0.000
923.333;   26.000;  -65.000;    0.000
923.894;   47.000;  -81.000;    0.000
924.454;   43.000;    4.000;    0.000
925.015;   11.000;  -16.000;    0.000
925.576;   26.000;  -63.000;    0.000
926.136;   14.000;  -60.000;    0.000
926.697;    9.000;  -44.000;    0.000
927.257;   47.000;  -60.000;    0.000
927.818;   33.000;  -44.000;    0.000
928.378;   92.000;  -51.000;    0.000
928.938;  -27.000;   -2.000;    0.000
929.499;   -2.000;  -14.000;    0.000
930.059;   37.000;  -50.000;    0.000
930.619;   -8.000;  -36.000;    0.000
931.179;   54.000;    7.000;    0.000
931.739;   28.000;  -15.000;    0.000
932.299;   35.000;    5.000;    0.000
932.859;  -10.000;  -17.000;    0.000
933.419;   42.000;   -2.000;    0.000
933.979;   30.000;  -40.000;    0.000
934.539;   20.000;  -15.000;    0.000
935.099;   45.000;  -17.000;    0.000
935.659;   -1.000;  -20.000;    0.000
936.219;  -10.000;  -77.000;    0.000
936.778;   15.000;  -70.000;    0.000
937.338;   -7.000;  -29.000;    0.000
937.898;   32.000;  -58.000;    0.000
938.457;   31.000;  -48.000;    0.000
939.017;   -5.000;  -40.000;    0.000
939.576;    5.000;  -43.000;    0.000
940.136;   16.000;    4.000;    0.000
940.695;   47.000;    5.000;    0.000
941.254;  -33.000;  -18.000;    0.000
941.814;   29.000;  -58.000;    0.000
942.373;   -6.000;  -37.000;    0.000
942.932;   23.000;  -50.000;    0.000
943.491;  -29.000;   -3.000;    0.000
944.051;   31.000;  -25.000;    0.000
944.610;   44.000;   13.000;    0.000
945.169;  -32.000;  -72.000;    0.000
945.728;   21.000;   15.000;    0.000
946.287;   47.000;  -47.000;    0.000
946.846;   -3.000;  -50.000;    0.000
947.404;   -1.000;  -75.000;    0.000
947.963;   58.000;  -88.000;    0.000
948.522;   46.000;  -22.000;    0.000
949.081;   27.000; -107.000;    0.000
949.639;   -8.000;    7.000;    0.000
950.198;    5.000;  -11.000;    0.000
950.757;   50.000;  -34.000;    0.000
951.315;  -17.000;   -5.000;    0.000
951.874;   49.000;  -49.000;    0.000
952.432;   54.000;  -16.000;    0.000
952.991;   42.000;  -27.000;    0.000
953.549;   63.000;   51.000;    0.000
954.107;   -7.000;   18.000;    0.000
954.666;   24.000;  -18.000;    0.000
955.224;   -6.000;  -52.000;    0.000
955.782;   19.000;  -53.000;    0.000
956.340;  -15.000;  -72.000;    0.000
956.898;   -2.000;  -29.000;    0.000
957.456;   17.000;  -19.000;    0.000
958.014;    3.000;  -16.000;    0.000
958.572;   19.000;  -68.000;    0.000
959.130;    2.000;  -22.000;    0.000
959.688;   36.000;  -54.000;    0.000
960.246;   44.000;   -7.000;    0.000
960.804;   21.000;  -56.000;    0.000
961.362;    1.000;   -4.000;    0.000
961.919;   38.000;  -57.000;    0.000
962.477;   36.000;  -65.000;    0.000
963.035;    3.000;  -13.000;    0.000
963.592;   16.000;  -28.000;    0.000
964.150;  -18.000;   -2.000;    0.000
964.707;  -45.000;  -58.000;    0.000
965.265;   19.000;  -58.000;    0.000
965.822;  -17.000;  -40.000;    0.000
966.379;   31.000;  -42.000;    0.000
966.937;   57.000;  -65.000;    0.000
967.494;   23.000;  -53.000;    0.000
968.051;    3.000;  -55.000;    0.000
968.608;    1.000;  -26.000;    0.000
969.165;   27.000;  -25.000;    0.000
969.722;   16.000;  -86.000;    0.000
970.279;   55.000;    4.000;    0.000
970.836;  -11.000;  -85.000;    0.000
971.393;   22.000;   15.000;    0.000
971.950;   37.000;    2.000;    0.000
972.507;  -10.000;  -55.000;    0.000
973.064;  -37.000;  -22.000;    0.000
973.621;  -66.000;   -6.000;    0.000
974.177;   54.000;  -34.000;    0.000
974.734;   32.000;  -29.000;    0.000
975.291;    8.000;    3.000;    0.000
975.847;    5.000;  -29.000;    0.000
976.404;   -6.000;  -31.000;    0.000
976.960;  -11.000;  -11.000;    0.000
977.517;   63.000;  -38.000;    0.000
978.073;   58.000;   -2.000;    0.000
978.629;  -50.000;   12.000;    0.000
979.186;    7.000;  -39.000;    0.000
979.742;    2.000;  -49.000;    0.000
980.298;   45.000;  -97.000;    0.000
980.854;   34.000;  -63.000;    0.000
981.411;    5.000;    8.000;    0.000
981.967;  -43.000;  -57.000;    0.000
982.523;   23.000;  -38.000;    0.000
983.079;  -12.000;  -60.000;    0.000
983.635;    9.000;  -19.000;    0.000
984.190;  -20.000;  -10.000;    0.000
984.746;   10.000;  -26.000;    0.000
985.302;  -31.000;  -67.000;    0.000
985.858;   34.000;  -20.000;    0.000
986.414;  -64.000;  -49.000;    0.000
986.969;   10.000;  -35.000;    0.000
987.525;   22.000;  -35.000;    0.000
988.080;  -24.000;  -27.000;    0.000
988.636;  -14.000;  -70.000;    0.000
989.192;  -66.000;  -90.000;    0.000
989.747;  -60.000;  -31.000;    0.000
990.302;   19.000;   -5.000;    0.000
990.858;    9.000;  -43.000;    0.000
991.413;    9.000;  -65.000;    0.000
991.968;   32.000;  -83.000;    0.000
992.523;    8.000;   15.000;    0.000
993.079;  -53.000;  -40.000;    0.000
993.634;  -24.000;   -5.000;    0.000
994.189;   22.000;  -64.000;    0.000
994.744;  -46.000;  -61.000;    0.000
995.299;  -57.000;  -60.000;    0.000
995.854;  -47.000;  -34.000;    0.000
996.409;    5.000;  -44.000;    0.000
996.963;   53.000;  -42.000;    0.000
997.518;   38.000;  -16.000;    0.000
998.073;  -39.000;  -34.000;    0.000
998.628;   -2.000;  -35.000;    0.000
999.182;   -2.000;  -44.000;    0.000
999.737;    0.000;  -51.000;    0.000
1000.292;   -1.000;  -26.000;    0.000
1000.846;   36.000;  -29.000;    0.000
1001.401;    7.000;  -13.000;    0.000
1001.955;   20.000;    0.000;    0.000
1002.509;  -50.000;  -51.000;    0.000
1003.064;  -89.000;  -37.000;    0.000
1003.618;    6.000;  -42.000;    0.000
1004.172;  -31.000;  -50.000;    0.000
1004.726;   -4.000;  -62.000;    0.000
1005.281;   -8.000;   -1.000;    0.000
1005.835;  -17.000;  -46.000;    0.000
1006.389;    6.000;  -49.000;    0.000
1006.943;    8.000;  -53.000;    0.000
1007.497;   11.000;    3.000;    0.000
1008.051;    0.000;   -6.000;    0.000
1008.605;  -21.000;  -57.000;    0.000
1009.158;   -9.000;  -22.000;    0.000
1009.712;   13.000;   22.000;    0.000
1010.266;    1.000;  -70.000;    0.000
1010.820;  -31.000;  -57.000;    0.000
1011.373;    3.000;  -32.000;    0.000
1011.927;  -21.000;   -9.000;    0.000
1012.480;  -50.000;  -37.000;    0.000
1013.034;   -6.000;  -25.000;    0.000
1013.587;  -20.000;   -2.000;    0.000
1014.141;   -7.000;   -2.000;    0.000
1014.694;  -75.000;  -66.000;    0.000
1015.248;   -2.000;  -32.000;    0.000
1015.801;   17.000;    2.000;    0.000
1016.354;  -25.000;  -57.000;    0.000
1016.907;  -18.000;  -55.000;    0.000
1017.460;  -66.000;  -35.000;    0.000
1018.013;  -49.000;  -28.000;    0.000
1018.567;    2.000;   -3.000;    0.000
1019.120;  -45.000;   -4.000;    0.000
1019.672;   -6.000;  -27.000;    0.000
1020.225;  -15.000;  -15.000;    0.000
1020.778;  -33.000;  -80.000;    0.000
1021.331;  -23.000;   -3.000;    0.000
1021.884;  -39.000;   28.000;    0.000
1022.437;  -13.000;  -55.000;    0.000
1022.989;   20.000;  -23.000;    0.000
1023.542;  -13.000;  -10.000;    0.000
1024.094;  -28.000;  -11.000;    0.000
1024.647;  -42.000;  -56.000;    0.000
1025.199;  -13.000;  -37.000;    0.000
1025.752;   62.000;    9.000;    0.000
1026.304;  -69.000;  -31.000;    0.000
1026.857;   -8.000;   33.000;    0.000
1027.409;  -46.000;  -14.000;    0.000
1027.961;  -15.000;  -44.000;    0.000
1028.513;  -24.000;   17.000;    0.000
1029.066;   19.000;  -91.000;    0.000
1029.618;   13.000;  -57.000;    0.000
1030.170;  -23.000;  -41.000;    0.000
1030.722;  -76.000; -124.000;    0.000
1031.274;  -30.000;  -27.000;    0.000
1031.826;  -37.000;  -19.000;    0.000
1032.378;  -36.000;  -28.000;    0.000
1032.929;  -18.000;  -28.000;    0.000
1033.481;  -56.000;  -44.000;    0.000
1034.033;  -10.000;  -55.000;    0.000
1034.585;  -55.000;  -15.000;    0.000
1035.136;   -9.000;  -80.000;    0.000
1035.688;  -65.000;  -62.000;    0.000
1036.239;   -7.000;  -64.000;    0.000
1036.791;  -47.000;  -43.000;    0.000
1037.342;  -50.000;   -7.000;    0.000
1037.894;   13.000;    0.000;    0.000
1038.445;  -51.000;  -43.000;    0.000
1038.996;  -34.000;  -22.000;    0.000
1039.548;  -20.000;  -37.000;    0.000
1040.099;  -97.000;  -23.000;    0.000
1040.650;  -24.000;  -40.000;    0.000
1041.201;  -62.000;  -61.000;    0.000
1041.752;  -30.000;   19.000;    0.000
1042.303;  -62.000; -118.000;    0.000
1042.854;  -71.000;  -99.000;    0.000
1043.405;  -18.000;  -14.000;    0.000
1043.956;  -44.000;  -30.000;    0.000
1044.507;  -13.000;  -48.000;    0.000
1045.058;   24.000;  -31.000;    0.000
1045.609;  -46.000;  -31.000;    0.000
1046.159;  -34.000;  -55.000;    0.000
1046.710;  -60.000;  -83.000;    0.000
1047.261;  -13.000;  -76.000;    0.000
1047.811;  -18.000;  -33.000;    0.000
1048.362;  -66.000;  -47.000;    0.000
1048.912;   59.000;   49.000;    0.000
1049.463;   35.000;   -5.000;    0.000
1050.013;  -11.000;  -40.000;    0.000
1050.563;  -14.000;  -76.000;    0.000
1051.114;  -13.000;  -29.000;    0.000
1051.664;  -89.000;  -21.000;    0.000
1052.214;  -13.000;  -48.000;    0.000
1052.764;  -42.000;  -46.000;    0.000
1053.314;  -11.000;  -56.000;    0.000
1053.864;    3.000;   -6.000;    0.000
1054.414;  -67.000;  -54.000;    0.000
1054.964;  -33.000;  -70.000;    0.000
1055.514;  -41.000;   21.000;    0.000
1056.064;  -34.000;  -16.000;    0.000
1056.614;  -33.000;  -31.000;    0.000
1057.163;  -34.000;  -61.000;    0.000
1057.713;   -7.000;  -29.000;    0.000
1058.263;  -77.000;  -83.000;    0.000
1058.812;  -61.000;  -32.000;    0.000
1059.362;  -67.000;  -67.000;    0.000
1059.912;  -73.000;  -30.000;    0.000
1060.461;  -38.000;    8.000;    0.000
1061.010;  -63.000;  -35.000;    0.000
1061.560;  -23.000;  -64.000;    0.000
1062.109;  -72.000;   -3.000;    0.000
1062.658;  -85.000;  -51.000;    0.000
1063.208;  -59.000;  -84.000;    0.000
1063.757;  -40.000;  -89.000;    0.000
1064.306; -110.000;  -12.000;    0.000
1064.855;  -69.000;  -39.000;    0.000
1065.404;  -49.000;  -21.000;    0.000
1065.953;   14.000;  -14.000;    0.000
1066.502;  -84.000;  -20.000;    0.000
1067.051;  -36.000;  -30.000;    0.000
1067.600;  -39.000;  -37.000;    0.000
1068.149;  -11.000;  -46.000;    0.000
1068.698;  -43.000;  -45.000;    0.000
1069.246;  -49.000;  -50.000;    0.000
1069.795;   -4.000;  -65.000;    0.000
1070.344;  -22.000;  -48.000;    0.000
1070.892;  -10.000;  -61.000;    0.000
1071.441;  -62.000;  -34.000;    0.000
1071.989;  -11.000;  -33.000;    0.000
1072.538;  -29.000;  -36.000;    0.000
1073.086;  -43.000;  -12.000;    0.000
1073.634;   -4.000;  -38.000;    0.000
1074.183;  -39.000;  -43.000;    0.000
1074.731; -116.000;  -92.000;    0.000
1075.279;   -3.000;  -52.000;    0.000
1075.827;  -40.000;  -78.000;    0.000
1076.375;  -16.000;  -27.000;    0.000
1076.923;   -4.000;    5.000;    0.000
1077.471;  -96.000;  -52.000;    0.000
1078.019;  -52.000;  -58.000;    0.000
1078.567;  -66.000;  -47.000;    0.000
1079.115;  -39.000;  -71.000;    0.000
1079.663;   -8.000;  -59.000;    0.000
1080.210;  -35.000;  -34.000;    0.000
1080.758;  -34.000;  -27.000;    0.000
1081.306;  -72.000;  -79.000;    0.000
1081.853;  -28.000;  -55.000;    0.000
1082.401;  -19.000;  -85.000;    0.000
1082.949;  -56.000;  -67.000;    0.000
1083.496;  -38.000;  -39.000;    0.000
1084.043;  -40.000;  -25.000;    0.000
1084.591;   -7.000;  -53.000;    0.000
1085.138;  -80.000;  -18.000;    0.000
1085.685;  -69.000;  -79.000;    0.000
1086.233;  -29.000;  -39.000;    0.000
1086.780;  -45.000;  -48.000;    0.000
1087.327;  -62.000;  -34.000;    0.000
1087.874;  -29.000;  -33.000;    0.000
1088.421;  -85.000;  -11.000;    0.000
1088.968;  -69.000;  -59.000;    0.000
1089.515;  -53.000;  -10.000;    0.000
1090.062;  -16.000;   -9.000;    0.000
1090.609; -103.000;  -24.000;    0.000
1091.156;  -51.000;  -55.000;    0.000
1091.702;  -61.000;  -57.000;    0.000
1092.249;   -1.000;  -45.000;    0.000
1092.796;  -70.000;  -48.000;    0.000
1093.342;  -36.000;  -24.000;    0.000
1093.889;  -12.000;  -37.000;    0.000
1094.435;  -61.000;  -26.000;    0.000
1094.982;  -61.000;  -60.000;    0.000
1095.528;  -58.000;  -68.000;    0.000
1096.075;  -64.000;  -44.000;    0.000
1096.621;  -75.000;  -94.000;    0.000
1097.167;  -55.000;  -37.000;    0.000
1097.713;  -89.000;  -66.000;    0.000
1098.259;  -33.000;  -42.000;    0.000
1098.806;  -29.000;  -46.000;    0.000
1099.352;  -44.000;    3.000;    0.000
1099.898;  -18.000;  -62.000;    0.000
1100.444;  -87.000;  -59.000;    0.000

