
Integration time [ms]:   1.050
Averaging Nr. [scans]: 1
Smoothing Nr. [pixels]: 0
Data measured with spectrometer [name]: 1701237U1
Wave   ;Sample   ;Dark     ;Reference
[nm]   ;[counts] ;[counts] ;[counts] 

173.876;    2.683;    7.002;    0.000
174.482;   17.794;    9.001;    0.000
175.087;  -14.076;   12.001;    0.000
175.693;   10.800;   34.001;    0.000
176.298;   11.672;   10.002;    0.000
176.903;  -34.113;  -11.999;    0.000
177.509;  -11.069;   19.000;    0.000
178.114;   16.766;   -1.998;    0.000
178.719;  -25.130;    3.001;    0.000
179.325;   -6.271;   -6.998;    0.000
179.930;   38.742;  -51.998;    0.000
180.535;  -11.073;  -13.999;    0.000
181.140;   -6.321;   13.002;    0.000
181.745;   59.908;    4.001;    0.000
182.351;   -5.067;   15.000;    0.000
182.956;  -14.141;   14.001;    0.000
183.561;   25.657;  -12.998;    0.000
184.166;   -5.188;   43.001;    0.000
184.771;   31.930;    2.000;    0.000
185.376;   -8.211;   -1.999;    0.000
185.981;    2.779;  -26.998;    0.000
186.586;   -5.128;    6.001;    0.000
187.191;    6.824;  -27.999;    0.000
187.796;    9.700;   37.002;    0.000
188.400;   17.546;   19.003;    0.000
189.005;    3.780;  -54.998;    0.000
189.610;  -11.142;   19.001;    0.000
190.215;   49.697;  -31.998;    0.000
190.820;   -9.268;   -6.998;    0.000
191.424;  -21.343;  -27.998;    0.000
192.029;  -18.361;  -12.997;    0.000
192.634;   -5.406;  -13.997;    0.000
193.238;   10.899;  -57.999;    0.000
193.843;   37.512;    9.003;    0.000
194.448;   38.588;    4.003;    0.000
195.052;   -5.270;   16.002;    0.000
195.657;   18.620;  -14.997;    0.000
196.261;   49.497;   19.004;    0.000
196.866;   40.557;  -24.997;    0.000
197.470;  -12.360;   20.003;    0.000
198.075;   24.511;  -67.997;    0.000
198.679;  -16.518;  -26.996;    0.000
199.284;   -7.303;   22.002;    0.000
199.888;   24.356;   36.005;    0.000
200.492;   -4.493;    2.003;    0.000
201.097;  -19.385;   40.003;    0.000
201.701;  -12.530;   13.004;    0.000
202.305;  -13.232;    5.002;    0.000
202.909;  -28.237;  -17.998;    0.000
203.514;   17.607;   23.003;    0.000
204.118;   23.945;    0.000;    0.000
204.722;    1.859;   99.001;    0.000
205.326;   38.767;  -12.998;    0.000
205.930;   11.712;    7.002;    0.000
206.534;    4.679;   -5.998;    0.000
207.138;   -2.309;   42.002;    0.000
207.742;   16.706;   10.002;    0.000
208.346;   11.637;   18.003;    0.000
208.950;    1.695;   16.002;    0.000
209.554;    0.690;   55.002;    0.000
210.158;   38.637;  -36.997;    0.000
210.762;   30.657;   -6.998;    0.000
211.366;  -24.328;   23.002;    0.000
211.970;   20.787;  -29.998;    0.000
212.574;   41.521;  -21.997;    0.000
213.177;   31.615;  -15.997;    0.000
213.781;   -9.432;  -12.997;    0.000
214.385;    3.699;   10.002;    0.000
214.989;  -36.385;  -18.997;    0.000
215.592;   -3.452;  -24.997;    0.000
216.196;   -0.497;  -25.996;    0.000
216.800;   -0.469;    2.003;    0.000
217.403;  -46.363;   25.003;    0.000
218.007;   -4.528;   17.004;    0.000
218.610;   -2.425;  -27.997;    0.000
219.214;  -22.307;  -24.998;    0.000
219.817;   27.677;  -10.998;    0.000
220.421;  -47.337;   41.002;    0.000
221.024;   33.378;   33.004;    0.000
221.628;    4.323;  -11.995;    0.000
222.231;  -13.453;  -29.997;    0.000
222.834;  -36.340;  -18.998;    0.000
223.438;   27.767;   21.002;    0.000
224.041;   34.316;    1.005;    0.000
224.644;  -28.509;  -43.996;    0.000
225.248;   41.668;   -6.998;    0.000
225.851;  -28.263;  -28.998;    0.000
226.454;    5.545;  -44.997;    0.000
227.057;   34.620;   -6.997;    0.000
227.660;  -24.317;   40.002;    0.000
228.263;   34.584;   -6.997;    0.000
228.866;    1.577;    4.003;    0.000
229.470;   -5.360;   -3.997;    0.000
230.073;   17.552;   -4.997;    0.000
230.676;    1.795;    6.001;    0.000
231.279;   13.521;   -4.997;    0.000
231.882;   32.568;   -9.997;    0.000
232.484;  -30.240;   -1.998;    0.000
233.087;  -57.277;   60.002;    0.000
233.690;  -67.349;  -26.998;    0.000
234.293;    2.660;   -5.998;    0.000
234.896;   -5.469;   -6.997;    0.000
235.499;   22.302;   23.005;    0.000
236.101;    3.672;  -43.998;    0.000
236.704;    3.554;   33.003;    0.000
237.307;  -12.491;  -20.997;    0.000
237.910;   38.527;   25.003;    0.000
238.512;    3.720;   -7.998;    0.000
239.115;  -14.026;  -14.000;    0.000
239.717;  -20.535;    3.004;    0.000
240.320;  -14.168;    0.001;    0.000
240.923;    5.551;    3.003;    0.000
241.525;   25.467;   26.004;    0.000
242.128;   -7.396;   -2.997;    0.000
242.730;   -4.323;   56.002;    0.000
243.332;   -7.108;  -13.999;    0.000
243.935;  -17.475;  -13.997;    0.000
244.537;   32.640;  -16.997;    0.000
245.140;   -8.393;  -14.997;    0.000
245.742;    1.541;    0.003;    0.000
246.344;   25.576;    3.003;    0.000
246.946;   19.504;  -48.996;    0.000
247.549;    5.572;  -11.997;    0.000
248.151;  -16.599;   -6.996;    0.000
248.753;  -37.307;   -5.998;    0.000
249.355;  -33.594;   -1.996;    0.000
249.957;    1.727;  -15.998;    0.000
250.559;  -21.428;   44.003;    0.000
251.161;   -4.329;  -34.998;    0.000
251.764;  -22.409;   -6.997;    0.000
252.366;  -23.289;   33.002;    0.000
252.968;   -1.393;  -25.997;    0.000
253.570;   12.640;    4.003;    0.000
254.171;  -10.483;  -94.997;    0.000
254.773;  -27.297;   33.002;    0.000
255.375;  -11.486;   21.003;    0.000
255.977;    4.869;   51.001;    0.000
256.579;   68.705;   48.002;    0.000
257.181;  -37.389;  -20.997;    0.000
257.782;   26.629;    3.003;    0.000
258.384;   31.637;    3.003;    0.000
258.986;   -3.246;   34.002;    0.000
259.588;  -14.331;    8.002;    0.000
260.189;   -6.444;  -25.997;    0.000
260.791;   38.568;  -19.997;    0.000
261.392;   47.515;   10.003;    0.000
261.994;  -36.509;   25.004;    0.000
262.596;  -41.480;  -13.997;    0.000
263.197;   28.772;  -30.998;    0.000
263.799;    7.344;  -29.995;    0.000
264.400;   -6.418;  -44.997;    0.000
265.002;   -2.365;    9.003;    0.000
265.603;   -9.328;  -50.998;    0.000
266.204;   48.723;  -20.998;    0.000
266.806;   23.662;  -18.998;    0.000
267.407;    2.536;  -47.997;    0.000
268.008;   14.735;   15.002;    0.000
268.610;   -0.480;    9.003;    0.000
269.211;   11.501;   -5.996;    0.000
269.812;    3.779;    1.002;    0.000
270.413;    6.642;  -25.997;    0.000
271.014;   13.562;  -27.997;    0.000
271.615;   43.753;  -32.998;    0.000
272.217;  -10.285;    5.002;    0.000
272.818;  -28.415;   19.003;    0.000
273.419;   15.597;  -18.997;    0.000
274.020;  -17.334;  -29.998;    0.000
274.621;  -40.550;  -41.996;    0.000
275.222;  -23.274;   15.002;    0.000
275.823;   15.528;  -25.997;    0.000
276.423;  -34.461;   -0.997;    0.000
277.024;  -10.269;   43.002;    0.000
277.625;   47.563;  -34.997;    0.000
278.226;   18.566;  -19.997;    0.000
278.827;    3.514;   11.003;    0.000
279.427;    8.530;  -11.997;    0.000
280.028;  -15.145;   -7.999;    0.000
280.629;  -20.402;   29.003;    0.000
281.230;   -1.387;  -11.997;    0.000
281.830;  -14.541;  -59.996;    0.000
282.431;    5.595;  218.003;    0.000
283.031;  -21.346;   10.002;    0.000
283.632;  -16.431;   47.003;    0.000
284.233;   -4.492;  -33.997;    0.000
284.833;  -21.501;    2.004;    0.000
285.434;   -3.351;  -68.998;    0.000
286.034;   12.792;   -0.999;    0.000
286.634;   33.567;   14.003;    0.000
287.235;  -42.357;  -32.997;    0.000
287.835;  -10.292;  -26.998;    0.000
288.435;   13.677;  -13.998;    0.000
289.036;    2.758;    0.002;    0.000
289.636;  -11.320;   13.002;    0.000
290.236;  -37.726;    4.005;    0.000
290.837;   10.907;  -36.999;    0.000
291.437;   22.772;   11.002;    0.000
292.037;   64.850;   -7.999;    0.000
292.637;   38.704;  -38.998;    0.000
293.237;  -17.219;  -23.998;    0.000
293.837;  -50.449;   50.003;    0.000
294.437;   14.571;    0.003;    0.000
295.037;   22.702;  -27.998;    0.000
295.637;  -35.176;  -28.999;    0.000
296.237;  -68.183;    6.001;    0.000
296.837;  -27.242;   15.002;    0.000
297.437;   43.634;   56.003;    0.000
298.037;  -31.089;   -7.999;    0.000
298.637;   26.804;  -19.999;    0.000
299.237;  -18.414;  -10.997;    0.000
299.836;   24.803;  -27.999;    0.000
300.436;  -18.312;   -7.998;    0.000
301.036;  -21.122;   -9.999;    0.000
301.636;   34.560;  -19.997;    0.000
302.235;  -33.374;  -20.997;    0.000
302.835;   19.898;  -59.999;    0.000
303.434;  -17.417;  -13.997;    0.000
304.034;  -11.521;  -12.996;    0.000
304.634;    5.730;  -21.998;    0.000
305.233;   90.690;    0.002;    0.000
305.833;   55.656;    6.002;    0.000
306.432;  -15.351;  -40.998;    0.000
307.032;   34.574;    6.003;    0.000
307.631;   12.660;   25.002;    0.000
308.230;   19.593;  -23.997;    0.000
308.830;    3.558;  -42.997;    0.000
309.429;  -13.555;  -49.996;    0.000
310.028;   10.420;  -40.996;    0.000
310.628;   20.507;   -8.997;    0.000
311.227;   21.407;   18.004;    0.000
311.826;   25.643;   -8.997;    0.000
312.425;   20.755;  -14.998;    0.000
313.024;  -16.461;   -3.997;    0.000
313.623;   11.683;  -31.998;    0.000
314.223;   54.626;   31.003;    0.000
314.822;   46.527;  -35.997;    0.000
315.421;    2.428;   11.004;    0.000
316.020;   29.513;   30.003;    0.000
316.619;    7.347;  -29.995;    0.000
317.218;   58.410;   12.004;    0.000
317.816;  -32.534;  -53.996;    0.000
318.415;   24.680;    6.002;    0.000
319.014;   36.451;  -18.996;    0.000
319.613;    7.407;   21.004;    0.000
320.212;    3.460;   54.004;    0.000
320.811;  -14.761;    3.005;    0.000
321.409;  -31.344;   -8.998;    0.000
322.008;  -10.480;   -4.997;    0.000
322.607;  -42.690;  -56.995;    0.000
323.205;   47.425;  -28.996;    0.000
323.804;   -1.551;   -9.996;    0.000
324.403;  -12.842;  -27.994;    0.000
325.001;    8.284;    4.005;    0.000
325.600;    8.300;   30.005;    0.000
326.198;   31.367;  -29.996;    0.000
326.797;   20.273;  -44.995;    0.000
327.395;  -58.879;  -17.994;    0.000
327.994;   -9.080;  -27.992;    0.000
328.592;   19.872;   -8.992;    0.000
329.190;   -5.245;   49.009;    0.000
329.789;  -26.223;  -13.991;    0.000
330.387;  -20.295;    3.009;    0.000
330.985;   30.773;  -11.991;    0.000
331.583;   -7.405;  -39.990;    0.000
332.182;    8.430;   17.011;    0.000
332.780;    9.384;    7.011;    0.000
333.378;   51.200;  -23.987;    0.000
333.976;   -3.688;   -9.988;    0.000
334.574;  -22.772;  -65.987;    0.000
335.172;    3.327;  -70.988;    0.000
335.770;   36.408;   -3.989;    0.000
336.368;   58.239;   36.012;    0.000
336.966;  -30.452;   13.010;    0.000
337.564;   -4.536;  -40.989;    0.000
338.162;  -18.466;   51.010;    0.000
338.760;  -26.170;  -15.992;    0.000
339.358;  -27.313;  -33.991;    0.000
339.956;   19.753;  -12.991;    0.000
340.554;  -30.230;  -23.991;    0.000
341.151;   45.748;   26.009;    0.000
341.749;  -45.429;  -11.990;    0.000
342.347;  -20.439;  -28.990;    0.000
342.944;   51.199;  -21.987;    0.000
343.542;  -12.532;  -27.989;    0.000
344.140;  -39.560;  -42.989;    0.000
344.737;  -13.683;  -33.988;    0.000
345.335;   17.524;   26.010;    0.000
345.932;    6.530;   -4.990;    0.000
346.530;   27.690;   -7.991;    0.000
347.127;   25.621;   -4.990;    0.000
347.725;   -9.586;   41.011;    0.000
348.322;  -24.344;    5.010;    0.000
348.920;  -11.432;   18.010;    0.000
349.517;   32.523;   46.010;    0.000
350.114;   -7.499;  -47.989;    0.000
350.712;   30.633;  -80.990;    0.000
351.309;   51.698;  -12.991;    0.000
351.906;    7.682;  -18.991;    0.000
352.503;   29.662;   -6.991;    0.000
353.100;   77.625;   -7.990;    0.000
353.698;   46.832;    4.008;    0.000
354.295;   28.607;   40.010;    0.000
354.892;    3.430;   -4.989;    0.000
355.489;  -10.206;  -60.991;    0.000
356.086;  -35.516;   20.011;    0.000
356.683;   -7.329;  -27.991;    0.000
357.280;  -14.611;    6.011;    0.000
357.877;   -5.575;    0.011;    0.000
358.474;   -3.414;  -25.990;    0.000
359.070;   23.673;  -33.991;    0.000
359.667;  -14.356;  -17.990;    0.000
360.264;  -60.376;   17.010;    0.000
360.861;   -7.489;   -9.989;    0.000
361.458;  -12.200;  -22.992;    0.000
362.054;   -4.482;  -42.990;    0.000
362.651;   23.781;   19.009;    0.000
363.248;    1.779;   13.009;    0.000
363.844;  -40.205;  -34.991;    0.000
364.441;    7.699;  -22.991;    0.000
365.037;    6.682;    1.009;    0.000
365.634;    3.719;  -45.991;    0.000
366.230;   21.802;  -28.992;    0.000
366.827;   -8.278;    9.009;    0.000
367.423;   18.586;  -26.990;    0.000
368.020;  -19.287;   -8.991;    0.000
368.616;  -29.442;   -8.990;    0.000
369.213;  -11.418;   40.010;    0.000
369.809;   20.613;    7.010;    0.000
370.405;   -9.043;  -42.993;    0.000
371.001;  -36.584;   36.011;    0.000
371.598;    8.476;   22.011;    0.000
372.194;  -18.378;  -19.990;    0.000
372.790;    7.823;  -41.992;    0.000
373.386;   42.735;  -20.991;    0.000
373.982;  -14.441;    0.010;    0.000
374.578;   17.676;  -40.991;    0.000
375.174;   14.329;  -35.988;    0.000
375.770;  -25.450;  -38.990;    0.000
376.366;   -3.473;  -27.990;    0.000
376.962;    3.553;    4.010;    0.000
377.558;  -21.298;  -25.991;    0.000
378.154;    0.668;  -67.991;    0.000
378.750;  -45.456;  -24.990;    0.000
379.346;   21.576;  -25.990;    0.000
379.942;   -6.502;   12.011;    0.000
380.537;   -1.559;   35.011;    0.000
381.133;   -0.459;  -51.990;    0.000
381.729;    2.790;  -65.991;    0.000
382.325;  -13.111;   33.008;    0.000
382.920;  -14.430;   16.010;    0.000
383.516;   60.668;  -21.991;    0.000
384.111;   -5.436;  -27.990;    0.000
384.707;   56.433;  -50.989;    0.000
385.302;  -25.515;  -18.989;    0.000
385.898;   -9.418;   18.010;    0.000
386.493;   27.459;  -22.989;    0.000
387.089;   26.403;   36.011;    0.000
387.684;    5.633;   13.010;    0.000
388.280;    4.620;  -40.990;    0.000
388.875;  -55.189;   -6.992;    0.000
389.470;  -24.546;  -28.989;    0.000
390.066;   16.571;   -7.990;    0.000
390.661;   40.684;   31.009;    0.000
391.256;  -38.502;    0.011;    0.000
391.851;   11.553;  -20.990;    0.000
392.446;   30.521;    4.010;    0.000
393.041;   37.739;    0.009;    0.000
393.637;    9.676;  -11.991;    0.000
394.232;   24.584;   10.010;    0.000
394.827;  -19.324;    2.009;    0.000
395.422;   -7.650;    2.012;    0.000
396.017;   45.715;   56.009;    0.000
396.612;   -5.583;   48.011;    0.000
397.206;   37.574;  -46.990;    0.000
397.801;   23.611; 1129.010;    0.000
398.396;  -20.421;   43.010;    0.000
398.991;   52.586;   -5.990;    0.000
399.586;   -5.538;    8.011;    0.000
400.180;    4.605;  -22.990;    0.000
400.775;   -1.373;   23.010;    0.000
401.370;   49.801;   -9.992;    0.000
401.965;   -8.472;  -34.990;    0.000
402.559;   20.627;  -13.990;    0.000
403.154;   41.611;  -20.990;    0.000
403.748;  -31.266;  -37.991;    0.000
404.343;    5.544;  -24.990;    0.000
404.937;   59.576;  -44.990;    0.000
405.532;    3.509;   -4.989;    0.000
406.126;   30.479;  -11.989;    0.000
406.721;   33.768;   -0.991;    0.000
407.315;  -37.417;  -49.990;    0.000
407.909;  -33.372;  -41.990;    0.000
408.504;   19.853;  -17.992;    0.000
409.098;   -3.370;  -41.990;    0.000
409.692;    6.748;  -21.991;    0.000
410.286;  -71.284;  -12.991;    0.000
410.881;  -27.360;   -6.990;    0.000
411.475;   20.728;   -8.991;    0.000
412.069;   43.725;   23.009;    0.000
412.663;  -13.286;  -34.991;    0.000
413.257;  -10.216;   50.009;    0.000
413.851;   47.808;  -22.992;    0.000
414.445;   19.651;  -17.990;    0.000
415.039;  -53.205;  -11.991;    0.000
415.633;   18.650;  -18.990;    0.000
416.227;   15.647;  -26.990;    0.000
416.821;   25.600;  -32.990;    0.000
417.415;  -39.127;  -14.992;    0.000
418.008;   32.681;  -19.991;    0.000
418.602;  -49.413;  -70.990;    0.000
419.196;  -22.268;   11.009;    0.000
419.790;  -10.193;  -43.992;    0.000
420.383;  -12.244;  -30.991;    0.000
420.977;    9.811;    2.008;    0.000
421.571;   16.706;  -26.991;    0.000
422.164;   79.886;   20.008;    0.000
422.758;  -31.100;  -35.992;    0.000
423.351;   28.764;   -2.991;    0.000
423.945;   12.871;    7.008;    0.000
424.538;    7.929;    9.008;    0.000
425.132;   35.665;  -19.991;    0.000
425.725;   67.829;  -19.992;    0.000
426.318;   29.754;   49.009;    0.000
426.912;   31.943;   -9.993;    0.000
427.505;   22.000;   35.007;    0.000
428.098;  -15.109;   38.008;    0.000
428.692;   55.880;   52.008;    0.000
429.285;   43.672;  -20.991;    0.000
429.878;   11.783;   -4.991;    0.000
430.471;   23.992;  -39.993;    0.000
431.064;   13.888;   -6.992;    0.000
431.657;  -19.057;  -29.993;    0.000
432.250;    1.889;   22.008;    0.000
432.843;   81.032;  -71.993;    0.000
433.436;   33.764;    0.009;    0.000
434.029;   40.023;  -62.993;    0.000
434.622;   67.898;  -18.992;    0.000
435.215;   32.194;    9.006;    0.000
435.808;   -4.053;  -77.993;    0.000
436.401;   50.075;    0.007;    0.000
436.994;   29.901;    7.008;    0.000
437.586;   46.949;  -50.993;    0.000
438.179;   28.051;  -26.993;    0.000
438.772;   -8.924;   23.007;    0.000
439.364;    0.911;  -27.992;    0.000
439.957;   44.177;   -1.994;    0.000
440.550;   36.990;  -40.993;    0.000
441.142;   27.069;   31.007;    0.000
441.735;  -21.243;    2.009;    0.000
442.327;   25.857;   -7.992;    0.000
442.920;   72.132;  -22.994;    0.000
443.512;   19.986;   20.007;    0.000
444.104;   52.923;  -37.992;    0.000
444.697;   41.143;  -18.994;    0.000
445.289;   32.861;   -5.992;    0.000
445.881;   34.953;    9.007;    0.000
446.474;   46.145;  -61.994;    0.000
447.066;   50.101;  -28.994;    0.000
447.658;   11.923;    9.008;    0.000
448.250;   18.050;  -30.993;    0.000
448.843;   15.022;  -52.993;    0.000
449.435;   14.269;  -18.995;    0.000
450.027;   48.791;   26.009;    0.000
450.619;   46.898;  -36.992;    0.000
451.211;  -11.156;  -10.992;    0.000
451.803;   29.037;  -15.993;    0.000
452.395;  103.104;  -10.994;    0.000
452.987;   32.179;  -16.994;    0.000
453.579;   27.152;  -39.994;    0.000
454.170;   40.343;  -56.995;    0.000
454.762;   80.253;   20.005;    0.000
455.354;   49.168;    3.006;    0.000
455.946;   74.040;   -9.993;    0.000
456.537;   49.259;  -17.995;    0.000
457.129;   48.064;   -5.993;    0.000
457.721;   25.321;    8.005;    0.000
458.312;   22.284;  -13.995;    0.000
458.904;   20.101;  -36.994;    0.000
459.496;   70.061;   19.007;    0.000
460.087;   44.998;  -50.993;    0.000
460.679;   70.136;  -11.994;    0.000
461.270;   44.102;   15.006;    0.000
461.862;   10.188;  -39.994;    0.000
462.453;  106.490;   20.004;    0.000
463.044;   96.081;  -12.994;    0.000
463.636;   62.386;   12.004;    0.000
464.227;   52.115;   20.006;    0.000
464.818;   26.207;  -13.994;    0.000
465.409;   65.497;  -13.996;    0.000
466.001;   59.212;  -25.994;    0.000
466.592;  123.440;  -11.996;    0.000
467.183;   45.368;  -17.996;    0.000
467.774;   51.259;   -0.995;    0.000
468.365;   60.105;  -20.994;    0.000
468.956;   61.102;  -14.994;    0.000
469.547;   97.195;  -57.994;    0.000
470.138;   60.113;  -46.994;    0.000
470.729;   27.026;   30.007;    0.000
471.320;  102.255;    4.005;    0.000
471.911;   28.305;  -26.995;    0.000
472.502;   45.997;  -20.993;    0.000
473.092;   91.443;  -28.996;    0.000
473.683;  109.038;  -12.993;    0.000
474.274;   90.399;   -3.996;    0.000
474.865;   42.221;  -26.994;    0.000
475.455;   52.324;    8.005;    0.000
476.046;   99.317;   48.005;    0.000
476.637;   88.350;  -19.995;    0.000
477.227;  105.259;   -7.995;    0.000
477.818;  102.321;   -2.995;    0.000
478.408;  120.327;   -5.995;    0.000
478.999;  147.262;  -53.995;    0.000
479.589;  110.144;   -9.994;    0.000
480.180;  158.395;   -3.996;    0.000
480.770;  137.386;  -42.996;    0.000
481.360;   85.391;  -40.996;    0.000
481.951;  129.244;  -16.995;    0.000
482.541;  128.087;    1.006;    0.000
483.131;  119.227;   -1.995;    0.000
483.721;  172.435;  -16.996;    0.000
484.312;  170.334;   26.005;    0.000
484.902;  100.358;   12.005;    0.000
485.492;  144.531;    9.003;    0.000
486.082;  125.424;  -32.996;    0.000
486.672;  150.479;   18.004;    0.000
487.262;  144.465;   -0.996;    0.000
487.852;  148.347;   26.005;    0.000
488.442;  163.229;   27.005;    0.000
489.032;  162.399;   56.004;    0.000
489.622;  122.474;  -14.996;    0.000
490.212;  130.381;   40.004;    0.000
490.801;  159.459;  -74.996;    0.000
491.391;  167.379;   -5.996;    0.000
491.981;  136.436;  -49.996;    0.000
492.571;  139.565;  -20.997;    0.000
493.160;  134.286;  -65.995;    0.000
493.750;  163.299;  -24.995;    0.000
494.340;  223.345;  -34.995;    0.000
494.929;  136.515;   19.003;    0.000
495.519;  163.285;   24.005;    0.000
496.108;  159.310;  -22.995;    0.000
496.698;  163.127;   -3.994;    0.000
497.287;  201.327;   19.005;    0.000
497.876;  209.388;   -1.996;    0.000
498.466;  211.405;   10.004;    0.000
499.055;  183.288;  -66.995;    0.000
499.645;  205.432;  -49.996;    0.000
500.234;  164.339;   -5.995;    0.000
500.823;  140.364;  -50.996;    0.000
501.412;  121.224;  -22.995;    0.000
502.001;  217.296;  -44.995;    0.000
502.591;  194.381;   -4.996;    0.000
503.180;  172.353;    7.005;    0.000
503.769;  209.356;  -34.995;    0.000
504.358;  214.394;    7.004;    0.000
504.947;  202.370;  -17.996;    0.000
505.536;  189.333;   -5.995;    0.000
506.125;  175.358;  -31.995;    0.000
506.714;  212.359;  -26.995;    0.000
507.303;  194.191;  -17.994;    0.000
507.891;  297.195;   17.006;    0.000
508.480;  194.416;    3.004;    0.000
509.069;  177.119;  -43.994;    0.000
509.658;  215.433;   39.004;    0.000
510.246;  239.207;    7.006;    0.000
510.835;  160.292;  -28.995;    0.000
511.424;  197.350;  -61.995;    0.000
512.012;  256.663;  -17.998;    0.000
512.601;  205.306;   48.005;    0.000
513.189;  249.286;  -11.995;    0.000
513.778;  182.254;  -19.995;    0.000
514.366;  242.436;    7.004;    0.000
514.955;  214.542;   -6.997;    0.000
515.543;  230.386;   26.004;    0.000
516.132;  240.306;  -13.995;    0.000
516.720;  286.419;   30.004;    0.000
517.308;  279.433;  -23.996;    0.000
517.896;  210.467;  -30.996;    0.000
518.485;  217.408;    7.004;    0.000
519.073;  181.270;  -60.995;    0.000
519.661;  209.502;    7.004;    0.000
520.249;  321.459;  -11.996;    0.000
520.837;  231.345;  -46.995;    0.000
521.425;  210.483;   10.004;    0.000
522.013;  260.473;   18.004;    0.000
522.601;  252.393;  -29.996;    0.000
523.189;  214.425;  -43.996;    0.000
523.777;  275.339;  -40.995;    0.000
524.365;  199.257;  -50.995;    0.000
524.953;  229.512;  -26.997;    0.000
525.541;  282.333;    3.005;    0.000
526.129;  198.373;  -13.996;    0.000
526.716;  221.622;  -81.997;    0.000
527.304;  321.486;    7.004;    0.000
527.892;  290.324;  -14.995;    0.000
528.479;  316.508;  -29.997;    0.000
529.067;  333.353;    1.005;    0.000
529.655;  260.555;  -12.997;    0.000
530.242;  250.349;   -9.995;    0.000
530.830;  322.533;   47.003;    0.000
531.417;  232.481;  -30.996;    0.000
532.005;  288.409;   15.004;    0.000
532.592;  304.610;    2.003;    0.000
533.179;  330.601;   27.003;    0.000
533.767;  347.387;   34.004;    0.000
534.354;  389.470;    9.004;    0.000
534.941;  276.485;   26.004;    0.000
535.529;  317.626;  -28.997;    0.000
536.116;  315.321;   -1.995;    0.000
536.703;  387.654;  -18.998;    0.000
537.290;  332.545;  -76.997;    0.000
537.877;  307.549;  -26.997;    0.000
538.464;  320.442;   56.004;    0.000
539.051;  371.557;  -20.997;    0.000
539.638;  317.641;  -36.997;    0.000
540.225;  319.499;  -15.996;    0.000
540.812;  327.599;  -28.997;    0.000
541.399;  335.350;    4.005;    0.000
541.986;  325.499;   50.004;    0.000
542.573;  342.548;   10.003;    0.000
543.160;  309.419;    8.004;    0.000
543.746;  333.703;  -25.998;    0.000
544.333;  359.540;   14.003;    0.000
544.920;  338.692;    5.002;    0.000
545.506;  301.518;   13.003;    0.000
546.093;  362.431;    6.004;    0.000
546.680;  296.451;  -26.996;    0.000
547.266;  305.638;   23.003;    0.000
547.853;  381.591;  -18.997;    0.000
548.439;  344.656;  -26.998;    0.000
549.025;  323.674;  -56.998;    0.000
549.612;  299.433;   -0.996;    0.000
550.198;  368.606;   24.003;    0.000
550.785;  390.511;  -32.997;    0.000
551.371;  382.796;   17.001;    0.000
551.957;  307.689;  -39.998;    0.000
552.543;  419.303;  -29.995;    0.000
553.130;  359.462;  -11.996;    0.000
553.716;  373.545;  -39.997;    0.000
554.302;  420.784;   -4.998;    0.000
554.888;  407.772;    2.002;    0.000
555.474;  371.600;  -42.997;    0.000
556.060;  411.491;   12.004;    0.000
556.646;  382.577;  -59.997;    0.000
557.232;  446.557;  -11.997;    0.000
557.818;  437.672;   -6.998;    0.000
558.404;  385.597;  -24.997;    0.000
558.990;  399.316;   -7.995;    0.000
559.576;  433.462;   72.004;    0.000
560.161;  346.333;  -53.995;    0.000
560.747;  392.420;  -44.996;    0.000
561.333;  428.593;   -7.997;    0.000
561.918;  403.455;  -23.996;    0.000
562.504;  444.629;  -33.997;    0.000
563.090;  427.552;   -6.997;    0.000
563.675;  455.584;    4.003;    0.000
564.261;  444.513;   -9.997;    0.000
564.846;  451.560;  -27.997;    0.000
565.432;  494.499;   29.004;    0.000
566.017;  437.531;  -18.997;    0.000
566.603;  467.649;  -19.998;    0.000
567.188;  461.496;  -62.996;    0.000
567.773;  473.752;  -13.998;    0.000
568.359;  452.709;  -18.998;    0.000
568.944;  404.617;    3.003;    0.000
569.529;  487.588;  -13.997;    0.000
570.114;  512.770;   -2.998;    0.000
570.699;  460.619;  -22.997;    0.000
571.284;  480.371;    3.004;    0.000
571.870;  521.769;   -7.998;    0.000
572.455;  493.671;  -22.998;    0.000
573.040;  461.416;  -86.996;    0.000
573.625;  442.628;   11.003;    0.000
574.209;  555.583;  -15.997;    0.000
574.794;  510.342;  -41.995;    0.000
575.379;  544.621;  -22.997;    0.000
575.964;  408.760;  -18.998;    0.000
576.549;  546.683;   12.002;    0.000
577.134;  559.740;  -31.998;    0.000
577.718;  486.653;   -2.998;    0.000
578.303;  512.525;  -18.997;    0.000
578.888;  517.781;  -36.998;    0.000
579.472;  513.541;    8.003;    0.000
580.057;  455.444;    4.004;    0.000
580.641;  509.632;  -36.997;    0.000
581.226;  521.628;  -14.997;    0.000
581.810;  524.555;   -5.997;    0.000
582.395;  576.644;  -15.997;    0.000
582.979;  583.439;  -27.996;    0.000
583.564;  468.388;   58.004;    0.000
584.148;  526.520;  -14.997;    0.000
584.732;  509.404;  -26.996;    0.000
585.317;  470.524;   12.003;    0.000
585.901;  513.411;  -45.996;    0.000
586.485;  474.581;   -4.997;    0.000
587.069;  620.599;  -34.997;    0.000
587.653;  502.596;   15.003;    0.000
588.237;  570.640;   14.003;    0.000
588.821;  526.611;  -18.997;    0.000
589.405;  592.669;  174.002;    0.000
589.989;  488.491;    1.004;    0.000
590.573;  514.736;  -19.998;    0.000
591.157;  533.471;    5.004;    0.000
591.741;  544.621;   -8.997;    0.000
592.325;  620.683;   25.002;    0.000
592.909;  523.458;  -42.996;    0.000
593.492;  561.692;  -35.998;    0.000
594.076;  602.506;  -50.997;    0.000
594.660;  626.678;   -5.998;    0.000
595.244;  559.704;  -12.998;    0.000
595.827;  547.563;  -18.997;    0.000
596.411;  508.818;  -19.999;    0.000
596.994;  597.711;   21.002;    0.000
597.578;  520.663;   21.002;    0.000
598.161;  569.403;   18.004;    0.000
598.745;  539.640;  -68.997;    0.000
599.328;  586.538;   10.003;    0.000
599.911;  586.505;  -74.996;    0.000
600.495;  642.452;  -46.996;    0.000
601.078;  564.693;  -10.998;    0.000
601.661;  501.678;   52.002;    0.000
602.245;  530.730;    1.002;    0.000
602.828;  597.718;  -44.998;    0.000
603.411;  576.686;   -2.998;    0.000
603.994;  618.228;   47.005;    0.000
604.577;  528.635;    6.003;    0.000
605.160;  553.553;    1.003;    0.000
605.743;  580.621;  -43.997;    0.000
606.326;  510.660;   -4.998;    0.000
606.909;  586.497;    8.004;    0.000
607.492;  588.550;  -12.997;    0.000
608.075;  560.700;  -16.998;    0.000
608.658;  598.660;  -19.998;    0.000
609.240;  582.676;  -21.998;    0.000
609.823;  599.587;  -25.997;    0.000
610.406;  641.600;  -59.997;    0.000
610.989;  522.646;  -17.998;    0.000
611.571;  616.778;   10.002;    0.000
612.154;  557.600;  -24.997;    0.000
612.736;  525.781;  -20.998;    0.000
613.319;  576.616;   -1.997;    0.000
613.901;  522.663;  -16.998;    0.000
614.484;  516.563;   -2.997;    0.000
615.066;  536.413;   -7.996;    0.000
615.649;  526.832;  -45.999;    0.000
616.231;  551.618;  -22.997;    0.000
616.813;  535.339;   22.005;    0.000
617.396;  551.182;  -82.994;    0.000
617.978;  562.037;   20.007;    0.000
618.560;  566.393;  -28.996;    0.000
619.142;  533.296;  -10.995;    0.000
619.724;  593.304;  -46.995;    0.000
620.306;  523.460;   15.004;    0.000
620.889;  654.551;  -43.997;    0.000
621.471;  563.522;   44.003;    0.000
622.053;  574.556;  -10.997;    0.000
622.635;  592.438;   17.004;    0.000
623.216;  579.715;  -63.998;    0.000
623.798;  679.411;    8.004;    0.000
624.380;  573.610;  -63.997;    0.000
624.962;  613.439;   19.004;    0.000
625.544;  667.482;   33.004;    0.000
626.125;  663.686;  -31.998;    0.000
626.707;  593.546;  -15.997;    0.000
627.289;  668.259;  -33.995;    0.000
627.870;  668.531;   -9.997;    0.000
628.452;  655.551;   -2.997;    0.000
629.034;  623.485;    8.004;    0.000
629.615;  652.468;  -45.996;    0.000
630.197;  625.491;  -64.996;    0.000
630.778;  716.592;  -34.997;    0.000
631.359;  647.385;  -22.996;    0.000
631.941;  623.612;   24.003;    0.000
632.522;  623.668;  -34.998;    0.000
633.103;  658.388;  -55.996;    0.000
633.685;  649.434;  -22.996;    0.000
634.266;  619.476;  -42.996;    0.000
634.847;  599.413;   -5.996;    0.000
635.428;  613.236;    1.005;    0.000
636.009;  626.552;    0.003;    0.000
636.590;  598.511;  -78.997;    0.000
637.171;  689.126;  -82.994;    0.000
637.752;  571.366;  -32.996;    0.000
638.333;  634.347;  -62.995;    0.000
638.914;  615.407;    8.004;    0.000
639.495;  618.213;  -40.994;    0.000
640.076;  654.450;  -20.996;    0.000
640.657;  633.452;  -73.996;    0.000
641.238;  723.453;   17.004;    0.000
641.818;  615.454;  -21.996;    0.000
642.399;  631.456;  -51.996;    0.000
642.980;  572.457;   10.004;    0.000
643.560;  542.458;  -46.996;    0.000
644.141;  667.460;  -36.996;    0.000
644.721;  619.461;   -4.996;    0.000
645.302;  595.462;  -27.996;    0.000
645.882;  688.464;   21.004;    0.000
646.463;  652.465;  -10.996;    0.000
647.043;  569.467;  -39.996;    0.000
647.624;  669.468;  -25.996;    0.000
648.204;  617.469;   12.004;    0.000
648.784;  603.471;  -10.996;    0.000
649.365;  568.472;  -12.996;    0.000
649.945;  634.473;  -11.996;    0.000
650.525;  586.475;  -36.996;    0.000
651.105;  640.476;  -23.996;    0.000
651.685;  655.477;  -26.996;    0.000
652.265;  671.479;   24.004;    0.000
652.845;  615.480;  -17.996;    0.000
653.425;  588.481;   46.004;    0.000
654.005;  574.483;   -1.996;    0.000
654.585;  621.484;  -50.996;    0.000
655.165;  647.485;  -33.996;    0.000
655.745;  613.487;   -4.996;    0.000
656.325;  688.488;  -44.996;    0.000
656.905;  562.489;  -56.996;    0.000
657.484;  648.491;    1.004;    0.000
658.064;  649.492;   -2.996;    0.000
658.644;  650.493;  -57.996;    0.000
659.223;  673.495;  -49.996;    0.000
659.803;  731.496;  -27.996;    0.000
660.382;  697.498;  -28.996;    0.000
660.962;  658.499;  -78.996;    0.000
661.541;  644.500;  -30.996;    0.000
662.121;  636.502;  -62.996;    0.000
662.700;  665.503;  -27.996;    0.000
663.280;  684.504;  -61.996;    0.000
663.859;  652.506;    3.003;    0.000
664.438;  658.507;   25.003;    0.000
665.017;  693.508;  -44.997;    0.000
665.597;  660.510;    2.003;    0.000
666.176;  701.511;    7.003;    0.000
666.755;  648.512;   -9.997;    0.000
667.334;  648.514;  -40.997;    0.000
667.913;  684.515;  -23.997;    0.000
668.492;  647.516;   -2.997;    0.000
669.071;  624.518;  -37.997;    0.000
669.650;  711.519;  -70.997;    0.000
670.229;  640.520;  -93.997;    0.000
670.808;  621.522;  -17.997;    0.000
671.387;  671.523;  -14.997;    0.000
671.965;  569.524;   -8.997;    0.000
672.544;  671.526;  -46.997;    0.000
673.123;  631.527;  -34.997;    0.000
673.702;  658.528;  -40.997;    0.000
674.280;  685.530;    9.003;    0.000
674.859;  632.531;  -17.997;    0.000
675.437;  635.533;  -10.997;    0.000
676.016;  687.534;   11.003;    0.000
676.594;  616.535;  -65.997;    0.000
677.173;  666.537;  -14.997;    0.000
677.751;  633.538;    1.003;    0.000
678.330;  655.539;  -26.997;    0.000
678.908;  667.541;  -17.997;    0.000
679.486;  704.542;  -34.997;    0.000
680.065;  676.543;    1.003;    0.000
680.643;  772.545;  -76.997;    0.000
681.221;  607.546;  -16.997;    0.000
681.799;  675.547;  -30.997;    0.000
682.377;  739.549;  -34.997;    0.000
682.955;  714.550;  -52.997;    0.000
683.533;  773.551;   -7.997;    0.000
684.111;  665.553;  -59.997;    0.000
684.689;  761.554;  -14.997;    0.000
685.267;  683.555;  -20.997;    0.000
685.845;  694.557;  -35.997;    0.000
686.423;  614.558;    8.003;    0.000
687.001;  740.559;  -55.997;    0.000
687.579;  850.561;    7.003;    0.000
688.156;  673.562;  -17.997;    0.000
688.734;  767.564;  -25.997;    0.000
689.312;  720.565;  -47.997;    0.000
689.889;  648.566;  -35.997;    0.000
690.467;  652.568;  -37.997;    0.000
691.044;  688.569;  -48.997;    0.000
691.622;  673.570;   31.003;    0.000
692.199;  684.572;   -3.997;    0.000
692.777;  705.573;  -35.997;    0.000
693.354;  718.574;    5.003;    0.000
693.932;  739.576;   -9.997;    0.000
694.509;  712.577;  -39.997;    0.000
695.086;  667.578;  -33.997;    0.000
695.663;  676.580;  -39.997;    0.000
696.241;  680.581;  -66.997;    0.000
696.818;  711.582;  -74.997;    0.000
697.395;  727.584;  -33.997;    0.000
697.972;  699.585;  -16.997;    0.000
698.549;  693.586;  -67.997;    0.000
699.126;  626.588;  -18.997;    0.000
699.703;  601.589;  -16.997;    0.000
700.280;  643.590;    3.003;    0.000
700.857;  623.592;   10.003;    0.000
701.434;  612.593;  -45.997;    0.000
702.010;  662.595;   -8.997;    0.000
702.587;  644.596;  -53.997;    0.000
703.164;  601.597;   20.003;    0.000
703.741;  615.599;  -16.997;    0.000
704.317;  661.600;  -44.997;    0.000
704.894;  647.601;  -33.997;    0.000
705.471;  537.603;  -24.997;    0.000
706.047;  618.604;  -25.997;    0.000
706.624;  615.605;   -1.997;    0.000
707.200;  592.607;  -35.997;    0.000
707.776;  601.608;  -40.997;    0.000
708.353;  670.609;  -93.997;    0.000
708.929;  600.611;    5.003;    0.000
709.506;  629.612;   -4.997;    0.000
710.082;  707.613;  -57.997;    0.000
710.658;  624.615;  -33.997;    0.000
711.234;  584.616;  -10.997;    0.000
711.810;  644.617;   -0.997;    0.000
712.387;  524.619;  -39.997;    0.000
712.963;  551.620;   -8.997;    0.000
713.539;  585.621;   23.003;    0.000
714.115;  584.623;  -54.997;    0.000
714.691;  591.624;   -7.997;    0.000
715.267;  566.625;  -79.997;    0.000
715.842;  569.627;   -1.997;    0.000
716.418;  674.628;  -15.997;    0.000
716.994;  533.630;  -38.997;    0.000
717.570;  515.631;  -21.997;    0.000
718.146;  516.632;  -59.997;    0.000
718.721;  590.634;    1.003;    0.000
719.297;  546.635;  -31.997;    0.000
719.873;  532.636;  -40.997;    0.000
720.448;  595.638;   -2.997;    0.000
721.024;  572.639;  -47.997;    0.000
721.599;  540.640;    1.003;    0.000
722.175;  597.642;   12.003;    0.000
722.750;  493.643;  -99.997;    0.000
723.325;  627.644;   19.003;    0.000
723.901;  591.646;  -69.997;    0.000
724.476;  642.647;  -10.998;    0.000
725.051;  504.648;  -21.998;    0.000
725.627;  624.650;   26.002;    0.000
726.202;  661.651;  -27.998;    0.000
726.777;  559.652;    1.002;    0.000
727.352;  542.654;  -28.998;    0.000
727.927;  570.655;  -48.998;    0.000
728.502;  521.656;  -52.998;    0.000
729.077;  556.658;   -3.998;    0.000
729.652;  579.659;   -2.998;    0.000
730.227;  579.661;  -35.998;    0.000
730.802;  566.662;  -55.998;    0.000
731.377;  594.663;    4.002;    0.000
731.951;  555.665;  -29.998;    0.000
732.526;  583.666;  -36.998;    0.000
733.101;  569.667;    4.002;    0.000
733.676;  553.669;  -11.998;    0.000
734.250;  604.670;  -21.998;    0.000
734.825;  639.671;  -14.998;    0.000
735.399;  557.673;  -39.998;    0.000
735.974;  580.674;  -29.998;    0.000
736.548;  540.675;  -37.998;    0.000
737.123;  514.677;  -62.998;    0.000
737.697;  545.678;   -6.998;    0.000
738.272;  582.679;   28.002;    0.000
738.846;  483.681;  -22.998;    0.000
739.420;  620.682;  -68.998;    0.000
739.994;  554.683;  -42.998;    0.000
740.569;  566.685;  -24.998;    0.000
741.143;  544.686;   -5.998;    0.000
741.717;  513.687;  -40.998;    0.000
742.291;  605.689;  -25.998;    0.000
742.865;  555.690;   -4.998;    0.000
743.439;  550.691;  -47.998;    0.000
744.013;  564.693;   37.002;    0.000
744.587;  598.694;  -45.998;    0.000
745.161;  566.696;  -60.998;    0.000
745.735;  583.697;   -3.998;    0.000
746.308;  571.698;  -17.998;    0.000
746.882;  577.700;  -78.998;    0.000
747.456;  511.701;    1.002;    0.000
748.030;  618.702;  -19.998;    0.000
748.603;  535.704;  -51.998;    0.000
749.177;  481.705;  -24.998;    0.000
749.751;  590.706;  -22.998;    0.000
750.324;  573.708;  -72.998;    0.000
750.898;  657.709;  -21.998;    0.000
751.471;  513.710;   40.002;    0.000
752.044;  560.712;  -45.998;    0.000
752.618;  560.713;  -42.998;    0.000
753.191;  556.714;  -21.998;    0.000
753.764;  536.716;  -50.998;    0.000
754.338;  588.717;  -49.998;    0.000
754.911;  635.718;    1.002;    0.000
755.484;  556.720;  -38.998;    0.000
756.057;  537.721;  -52.998;    0.000
756.630;  588.722;  -48.998;    0.000
757.203;  515.724;  -18.998;    0.000
757.776;  515.725;  -16.998;    0.000
758.349;  571.727;  -62.998;    0.000
758.922;  486.728;  -59.998;    0.000
759.495;  563.729;  -81.998;    0.000
760.068;  533.731;  -62.998;    0.000
760.641;  499.732;  -45.998;    0.000
761.214;  595.733;  -18.998;    0.000
761.786;  568.735;  -53.998;    0.000
762.359;  527.736;  -10.998;    0.000
762.932;  576.737;    3.002;    0.000
763.504;  549.739;  -10.998;    0.000
764.077;  591.740;  -14.998;    0.000
764.649;  544.741;  -26.998;    0.000
765.222;  635.743;  -80.998;    0.000
765.794;  488.744;   18.002;    0.000
766.367;  532.745;  -76.998;    0.000
766.939;  523.747;   -8.998;    0.000
767.511;  415.748;  -52.998;    0.000
768.084;  507.749;  -63.998;    0.000
768.656;  393.751;  -54.998;    0.000
769.228;  530.752;    6.002;    0.000
769.800;  491.753; -103.998;    0.000
770.373;  527.755;  -15.998;    0.000
770.945;  467.756;  -29.998;    0.000
771.517;  512.758;  -50.998;    0.000
772.089;  518.759;    1.002;    0.000
772.661;  475.760;   -7.998;    0.000
773.233;  481.762;  -49.998;    0.000
773.805;  461.763;   -8.998;    0.000
774.376;  511.764;  -64.998;    0.000
774.948;  529.766;  -44.998;    0.000
775.520;  505.767;  -33.998;    0.000
776.092;  510.768;   27.002;    0.000
776.663;  402.770;  -39.998;    0.000
777.235;  479.771;  -41.998;    0.000
777.807;  496.772;   -9.998;    0.000
778.378;  502.774;  -12.998;    0.000
778.950;  444.775;  -13.998;    0.000
779.521;  441.776;  -47.998;    0.000
780.093;  419.778;  -18.998;    0.000
780.664;  540.779;   19.002;    0.000
781.235;  512.780;  -21.998;    0.000
781.807;  412.782;    1.002;    0.000
782.378;  438.783;    4.002;    0.000
782.949;  491.784;  -22.998;    0.000
783.521;  433.786;    8.002;    0.000
784.092;  414.787;  -18.998;    0.000
784.663;  427.788;   -2.999;    0.000
785.234;  529.790;  -49.999;    0.000
785.805;  433.791;   -0.999;    0.000
786.376;  436.793;  -25.999;    0.000
786.947;  418.794;  -16.999;    0.000
787.518;  469.795;    5.001;    0.000
788.089;  354.797;  -42.999;    0.000
788.660;  480.798;   -3.999;    0.000
789.230;  441.799;  -36.999;    0.000
789.801;  395.801;    8.001;    0.000
790.372;  394.802;  -26.999;    0.000
790.943;  343.803;   11.001;    0.000
791.513;  409.805;  -91.999;    0.000
792.084;  438.806;   54.001;    0.000
792.654;  413.807;  -17.999;    0.000
793.225;  419.809;   13.001;    0.000
793.795;  467.810;  -65.999;    0.000
794.366;  354.811;  -35.999;    0.000
794.936;  410.813;    7.001;    0.000
795.507;  360.814;  -48.999;    0.000
796.077;  441.815;    5.001;    0.000
796.647;  431.817;  -10.999;    0.000
797.217;  346.818;  -35.999;    0.000
797.788;  449.819;  -21.999;    0.000
798.358;  459.821;  -29.999;    0.000
798.928;  422.822;  -68.999;    0.000
799.498;  389.824;  -38.999;    0.000
800.068;  365.825;  -21.999;    0.000
800.638;  346.826;  -20.999;    0.000
801.208;  413.828;  -32.999;    0.000
801.778;  470.829;   -1.999;    0.000
802.348;  350.830;  -46.999;    0.000
802.917;  370.832;  -50.999;    0.000
803.487;  379.833;  -19.999;    0.000
804.057;  400.834;  -39.999;    0.000
804.627;  407.836;  -36.999;    0.000
805.196;  404.837;   -6.999;    0.000
805.766;  419.838;  -26.999;    0.000
806.335;  377.840;  -35.999;    0.000
806.905;  406.841;   -5.999;    0.000
807.475;  355.842;  -41.999;    0.000
808.044;  358.844;   -6.999;    0.000
808.613;  427.845;  -50.999;    0.000
809.183;  414.846;  -21.999;    0.000
809.752;  318.848;  -56.999;    0.000
810.321;  401.849;  -40.999;    0.000
810.891;  334.850;  -76.999;    0.000
811.460;  351.852;  -20.999;    0.000
812.029;  414.853;   -4.999;    0.000
812.598;  335.855;  -19.999;    0.000
813.167;  352.856;  -39.999;    0.000
813.736;  373.857;   -5.999;    0.000
814.305;  389.859; -111.999;    0.000
814.874;  395.860;  -13.999;    0.000
815.443;  381.861;   -1.999;    0.000
816.012;  390.863;  -29.999;    0.000
816.581;  334.864;  -30.999;    0.000
817.150;  386.865;  -45.999;    0.000
817.718;  333.867;  -50.999;    0.000
818.287;  340.868;  -74.999;    0.000
818.856;  348.869;  -24.999;    0.000
819.424;  389.871;  -32.999;    0.000
819.993;  386.872;  -32.999;    0.000
820.562;  366.873;  -46.999;    0.000
821.130;  325.875;   -0.999;    0.000
821.698;  360.876;  -35.999;    0.000
822.267;  320.877;  -37.999;    0.000
822.835;  343.879;  -41.999;    0.000
823.404;  316.880;  -58.999;    0.000
823.972;  358.881;  -43.999;    0.000
824.540;  373.883;  -31.999;    0.000
825.108;  318.884;   31.001;    0.000
825.677;  321.885;    3.001;    0.000
826.245;  316.887;   17.001;    0.000
826.813;  352.888;  -27.999;    0.000
827.381;  264.890;  -13.999;    0.000
827.949;  282.891;  -35.999;    0.000
828.517;  338.892;  -25.999;    0.000
829.085;  367.894;  -44.999;    0.000
829.653;  282.895;  -23.999;    0.000
830.220;  407.896;  -32.999;    0.000
830.788;  349.898;  -35.999;    0.000
831.356;  358.899;  -66.999;    0.000
831.924;  305.900;   38.001;    0.000
832.491;  286.902;   10.001;    0.000
833.059;  321.903;    6.001;    0.000
833.627;  366.904;  -83.999;    0.000
834.194;  309.906;  -72.999;    0.000
834.762;  330.907;   -4.999;    0.000
835.329;  387.908;  -34.999;    0.000
835.897;  340.910;    1.001;    0.000
836.464;  333.911;  -29.999;    0.000
837.031;  324.912;   -5.999;    0.000
837.599;  365.914;  -61.999;    0.000
838.166;  367.915;   23.001;    0.000
838.733;  308.916;  -54.999;    0.000
839.300;  302.918;  -64.999;    0.000
839.867;  280.919;  -34.999;    0.000
840.434;  342.921;  -30.999;    0.000
841.001;  329.922;  -57.999;    0.000
841.568;  319.923;  -30.999;    0.000
842.135;  331.925;  -51.999;    0.000
842.702;  317.926;   29.001;    0.000
843.269;  331.927;  -56.999;    0.000
843.836;  304.929;  -10.999;    0.000
844.403;  363.930;   33.000;    0.000
844.970;  281.931;  -26.000;    0.000
845.536;  328.933;  -45.000;    0.000
846.103;  261.934;  -50.000;    0.000
846.670;  272.935;  -39.000;    0.000
847.236;  333.937;  -39.000;    0.000
847.803;  274.938;  -39.000;    0.000
848.369;  359.939;    2.000;    0.000
848.936;  344.941;  -63.000;    0.000
849.502;  273.942;    3.000;    0.000
850.069;  358.943;  -13.000;    0.000
850.635;  380.945;  -55.000;    0.000
851.201;  279.946;  -17.000;    0.000
851.767;  285.947;  -15.000;    0.000
852.334;  334.949;  -18.000;    0.000
852.900;  278.950;   20.000;    0.000
853.466;  316.952;  -67.000;    0.000
854.032;  291.953;  -48.000;    0.000
854.598;  322.954;  -55.000;    0.000
855.164;  270.956;  -25.000;    0.000
855.730;  357.957;   -6.000;    0.000
856.296;  273.958;   13.000;    0.000
856.862;  315.960;   20.000;    0.000
857.428;  308.961;    1.000;    0.000
857.993;  339.962;  -34.000;    0.000
858.559;  272.964;   11.000;    0.000
859.125;  344.965;  -33.000;    0.000
859.690;  357.966;  -50.000;    0.000
860.256;  318.968;   -5.000;    0.000
860.822;  331.969;  -69.000;    0.000
861.387;  280.970;  -24.000;    0.000
861.953;  255.972;  -62.000;    0.000
862.518;  312.973;  -67.000;    0.000
863.083;  308.974;  -64.000;    0.000
863.649;  359.976;  -20.000;    0.000
864.214;  307.977;  -34.000;    0.000
864.779;  289.978;  -77.000;    0.000
865.345;  299.980;  -13.000;    0.000
865.910;  288.981;   -8.000;    0.000
866.475;  345.982;  -14.000;    0.000
867.040;  299.984;  -55.000;    0.000
867.605;  306.985;  -46.000;    0.000
868.170;  243.987;   10.000;    0.000
868.735;  263.988;  -40.000;    0.000
869.300;  262.989;   -9.000;    0.000
869.865;  319.991;   27.000;    0.000
870.430;  307.992;  -25.000;    0.000
870.995;  253.993;   43.000;    0.000
871.559;  287.995;  -18.000;    0.000
872.124;  228.996;  -12.000;    0.000
872.689;  241.997;  -84.000;    0.000
873.253;  307.999;  -20.000;    0.000
873.818;  325.000;  -38.000;    0.000
874.382;  302.000;  -47.000;    0.000
874.947;  263.000;  -58.000;    0.000
875.511;  277.000;  -32.000;    0.000
876.076;  314.000;  -58.000;    0.000
876.640;  272.000;  -33.000;    0.000
877.205;  291.000;  -33.000;    0.000
877.769;  315.000;  -37.000;    0.000
878.333;  275.000;  -74.000;    0.000
878.897;  255.000;  -39.000;    0.000
879.461;  302.000;  -34.000;    0.000
880.026;  291.000;   26.000;    0.000
880.590;  304.000;  -24.000;    0.000
881.154;  271.000;  -39.000;    0.000
881.718;  312.000;   -7.000;    0.000
882.282;  219.000;  -19.000;    0.000
882.846;  278.000;  -17.000;    0.000
883.409;  236.000;  -44.000;    0.000
883.973;  254.000;   25.000;    0.000
884.537;  214.000;  -29.000;    0.000
885.101;  214.000;  -33.000;    0.000
885.664;  275.000;  -30.000;    0.000
886.228;  284.000;  -22.000;    0.000
886.792;  191.000;  -23.000;    0.000
887.355;  201.000;    6.000;    0.000
887.919;  209.000;   -6.000;    0.000
888.482;  274.000;  -25.000;    0.000
889.046;  266.000;  -15.000;    0.000
889.609;  274.000;  -37.000;    0.000
890.172;  214.000;   -3.000;    0.000
890.736;  229.000;  -11.000;    0.000
891.299;  225.000;  -54.000;    0.000
891.862;  213.000;  -27.000;    0.000
892.425;  205.000;  -84.000;    0.000
892.988;  203.000;  -43.000;    0.000
893.552;  238.000;  -33.000;    0.000
894.115;  255.000;  -17.000;    0.000
894.678;  280.000;    9.000;    0.000
895.241;  181.000;   18.000;    0.000
895.803;  263.000;  -11.000;    0.000
896.366;  221.000;  -20.000;    0.000
896.929;  231.000;  -40.000;    0.000
897.492;  200.000;  -85.000;    0.000
898.055;  130.000;  -33.000;    0.000
898.617;  216.000;  -35.000;    0.000
899.180;  174.000;  -50.000;    0.000
899.743;  246.000;   20.000;    0.000
900.305;  206.000;   36.000;    0.000
900.868;  217.000;   -6.000;    0.000
901.430;  282.000;  -13.000;    0.000
901.993;  191.000;   17.000;    0.000
902.555;  203.000;  -22.000;    0.000
903.117;  217.000;  -40.000;    0.000
903.680;  212.000;  -35.000;    0.000
904.242;  253.000;  -20.000;    0.000
904.804;  289.000;    9.000;    0.000
905.366;  182.000;   11.000;    0.000
905.929;  262.000;   18.000;    0.000
906.491;  234.000;  -61.000;    0.000
907.053;  302.000;  -28.000;    0.000
907.615;  225.000;  -31.000;    0.000
908.177;  229.000;  -38.000;    0.000
908.739;  175.000;  -39.000;    0.000
909.300;  315.000;  -18.000;    0.000
909.862;  267.000;  -34.000;    0.000
910.424;  214.000;  -49.000;    0.000
910.986;  231.000;  -35.000;    0.000
911.547;  169.000;  -39.000;    0.000
912.109;  218.000;   19.000;    0.000
912.671;  265.000;  -55.000;    0.000
913.232;  269.000;   -8.000;    0.000
913.794;  255.000;  -69.000;    0.000
914.355;  179.000;  -23.000;    0.000
914.917;  267.000;  -28.000;    0.000
915.478;  233.000;  -29.000;    0.000
916.039;  182.000;   -4.000;    0.000
916.601;  210.000;  -50.000;    0.000
917.162;  201.000;  -35.000;    0.000
917.723;  160.000;   -2.000;    0.000
918.284;  198.000;  -50.000;    0.000
918.845;  195.000;   -2.000;    0.000
919.407;  171.000;  -33.000;    0.000
919.968;  157.000;  -29.000;    0.000
920.529;  208.000;  -39.000;    0.000
921.090;  179.000;  -23.000;    0.000
921.650;  195.000;  -41.000;    0.000
922.211;  146.000;  -44.000;    0.000
922.772;  196.000;   38.000;    0.000
923.333;  156.000;  -65.000;    0.000
923.894;  183.000;  -81.000;    0.000
924.454;  142.000;    4.000;    0.000
925.015;  179.000;  -16.000;    0.000
925.576;  180.000;  -63.000;    0.000
926.136;  150.000;  -60.000;    0.000
926.697;  162.000;  -44.000;    0.000
927.257;  155.000;  -60.000;    0.000
927.818;  202.000;  -44.000;    0.000
928.378;  196.000;  -51.000;    0.000
928.938;  153.000;   -2.000;    0.000
929.499;  157.000;  -14.000;    0.000
930.059;  132.000;  -50.000;    0.000
930.619;  107.000;  -36.000;    0.000
931.179;   98.000;    7.000;    0.000
931.739;  104.000;  -15.000;    0.000
932.299;  193.000;    5.000;    0.000
932.859;  194.000;  -17.000;    0.000
933.419;  160.000;   -2.000;    0.000
933.979;  123.000;  -40.000;    0.000
934.539;  164.000;  -15.000;    0.000
935.099;  154.000;  -17.000;    0.000
935.659;  127.000;  -20.000;    0.000
936.219;  178.000;  -77.000;    0.000
936.778;  152.000;  -70.000;    0.000
937.338;  116.000;  -29.000;    0.000
937.898;  111.000;  -58.000;    0.000
938.457;  131.000;  -48.000;    0.000
939.017;  117.000;  -40.000;    0.000
939.576;  156.000;  -43.000;    0.000
940.136;  166.000;    4.000;    0.000
940.695;  133.000;    5.000;    0.000
941.254;   98.000;  -18.000;    0.000
941.814;  108.000;  -58.000;    0.000
942.373;  190.000;  -37.000;    0.000
942.932;  131.000;  -50.000;    0.000
943.491;  155.000;   -3.000;    0.000
944.051;  139.000;  -25.000;    0.000
944.610;  186.000;   13.000;    0.000
945.169;  135.000;  -72.000;    0.000
945.728;  114.000;   15.000;    0.000
946.287;   99.000;  -47.000;    0.000
946.846;  124.000;  -50.000;    0.000
947.404;  133.000;  -75.000;    0.000
947.963;  116.000;  -88.000;    0.000
948.522;  105.000;  -22.000;    0.000
949.081;  120.000; -107.000;    0.000
949.639;  114.000;    7.000;    0.000
950.198;  107.000;  -11.000;    0.000
950.757;  104.000;  -34.000;    0.000
951.315;  135.000;   -5.000;    0.000
951.874;   90.000;  -49.000;    0.000
952.432;  117.000;  -16.000;    0.000
952.991;   81.000;  -27.000;    0.000
953.549;   56.000;   51.000;    0.000
954.107;  145.000;   18.000;    0.000
954.666;  135.000;  -18.000;    0.000
955.224;  118.000;  -52.000;    0.000
955.782;   57.000;  -53.000;    0.000
956.340;   74.000;  -72.000;    0.000
956.898;  141.000;  -29.000;    0.000
957.456;  129.000;  -19.000;    0.000
958.014;   93.000;  -16.000;    0.000
958.572;   78.000;  -68.000;    0.000
959.130;  123.000;  -22.000;    0.000
959.688;   52.000;  -54.000;    0.000
960.246;   91.000;   -7.000;    0.000
960.804;  118.000;  -56.000;    0.000
961.362;  129.000;   -4.000;    0.000
961.919;  101.000;  -57.000;    0.000
962.477;  110.000;  -65.000;    0.000
963.035;  111.000;  -13.000;    0.000
963.592;   83.000;  -28.000;    0.000
964.150;  180.000;   -2.000;    0.000
964.707;   95.000;  -58.000;    0.000
965.265;  111.000;  -58.000;    0.000
965.822;   92.000;  -40.000;    0.000
966.379;  157.000;  -42.000;    0.000
966.937;  102.000;  -65.000;    0.000
967.494;   97.000;  -53.000;    0.000
968.051;  140.000;  -55.000;    0.000
968.608;  104.000;  -26.000;    0.000
969.165;  121.000;  -25.000;    0.000
969.722;  105.000;  -86.000;    0.000
970.279;   85.000;    4.000;    0.000
970.836;  142.000;  -85.000;    0.000
971.393;   82.000;   15.000;    0.000
971.950;  108.000;    2.000;    0.000
972.507;  111.000;  -55.000;    0.000
973.064;   88.000;  -22.000;    0.000
973.621;   75.000;   -6.000;    0.000
974.177;   67.000;  -34.000;    0.000
974.734;   90.000;  -29.000;    0.000
975.291;   95.000;    3.000;    0.000
975.847;  150.000;  -29.000;    0.000
976.404;   61.000;  -31.000;    0.000
976.960;   84.000;  -11.000;    0.000
977.517;   49.000;  -38.000;    0.000
978.073;   38.000;   -2.000;    0.000
978.629;   79.000;   12.000;    0.000
979.186;   89.000;  -39.000;    0.000
979.742;   78.000;  -49.000;    0.000
980.298;   41.000;  -97.000;    0.000
980.854;  141.000;  -63.000;    0.000
981.411;   68.000;    8.000;    0.000
981.967;   46.000;  -57.000;    0.000
982.523;  115.000;  -38.000;    0.000
983.079;   66.000;  -60.000;    0.000
983.635;   95.000;  -19.000;    0.000
984.190;   96.000;  -10.000;    0.000
984.746;   95.000;  -26.000;    0.000
985.302;   65.000;  -67.000;    0.000
985.858;   37.000;  -20.000;    0.000
986.414;   45.000;  -49.000;    0.000
986.969;   96.000;  -35.000;    0.000
987.525;   41.000;  -35.000;    0.000
988.080;   77.000;  -27.000;    0.000
988.636;   40.000;  -70.000;    0.000
989.192;   23.000;  -90.000;    0.000
989.747;   76.000;  -31.000;    0.000
990.302;   91.000;   -5.000;    0.000
990.858;   80.000;  -43.000;    0.000
991.413;   56.000;  -65.000;    0.000
991.968;   67.000;  -83.000;    0.000
992.523;   86.000;   15.000;    0.000
993.079;  113.000;  -40.000;    0.000
993.634;   48.000;   -5.000;    0.000
994.189;   86.000;  -64.000;    0.000
994.744;   90.000;  -61.000;    0.000
995.299;   57.000;  -60.000;    0.000
995.854;   63.000;  -34.000;    0.000
996.409;   58.000;  -44.000;    0.000
996.963;   19.000;  -42.000;    0.000
997.518;   75.000;  -16.000;    0.000
998.073;   39.000;  -34.000;    0.000
998.628;   87.000;  -35.000;    0.000
999.182;    9.000;  -44.000;    0.000
999.737;  113.000;  -51.000;    0.000
1000.292;   80.000;  -26.000;    0.000
1000.846;   59.000;  -29.000;    0.000
1001.401;   74.000;  -13.000;    0.000
1001.955;   68.000;    0.000;    0.000
1002.509;   61.000;  -51.000;    0.000
1003.064;   26.000;  -37.000;    0.000
1003.618;   18.000;  -42.000;    0.000
1004.172;   49.000;  -50.000;    0.000
1004.726;   76.000;  -62.000;    0.000
1005.281;   62.000;   -1.000;    0.000
1005.835;   11.000;  -46.000;    0.000
1006.389;   35.000;  -49.000;    0.000
1006.943;   51.000;  -53.000;    0.000
1007.497;   78.000;    3.000;    0.000
1008.051;   43.000;   -6.000;    0.000
1008.605;   31.000;  -57.000;    0.000
1009.158;   94.000;  -22.000;    0.000
1009.712;  137.000;   22.000;    0.000
1010.266;  115.000;  -70.000;    0.000
1010.820;   57.000;  -57.000;    0.000
1011.373;   70.000;  -32.000;    0.000
1011.927;   35.000;   -9.000;    0.000
1012.480;   91.000;  -37.000;    0.000
1013.034;   75.000;  -25.000;    0.000
1013.587;  119.000;   -2.000;    0.000
1014.141;   79.000;   -2.000;    0.000
1014.694;    6.000;  -66.000;    0.000
1015.248;   19.000;  -32.000;    0.000
1015.801;   44.000;    2.000;    0.000
1016.354;   37.000;  -57.000;    0.000
1016.907;   52.000;  -55.000;    0.000
1017.460;   67.000;  -35.000;    0.000
1018.013;   94.000;  -28.000;    0.000
1018.567;   36.000;   -3.000;    0.000
1019.120;   79.000;   -4.000;    0.000
1019.672;   68.000;  -27.000;    0.000
1020.225;   12.000;  -15.000;    0.000
1020.778;   41.000;  -80.000;    0.000
1021.331;   18.000;   -3.000;    0.000
1021.884;   55.000;   28.000;    0.000
1022.437;   36.000;  -55.000;    0.000
1022.989;   -4.000;  -23.000;    0.000
1023.542;   47.000;  -10.000;    0.000
1024.094;   21.000;  -11.000;    0.000
1024.647;   18.000;  -56.000;    0.000
1025.199;  -14.000;  -37.000;    0.000
1025.752;   40.000;    9.000;    0.000
1026.304;   13.000;  -31.000;    0.000
1026.857;   13.000;   33.000;    0.000
1027.409;  -11.000;  -14.000;    0.000
1027.961;    7.000;  -44.000;    0.000
1028.513;   48.000;   17.000;    0.000
1029.066;   19.000;  -91.000;    0.000
1029.618;   12.000;  -57.000;    0.000
1030.170;  -21.000;  -41.000;    0.000
1030.722;    3.000; -124.000;    0.000
1031.274;  -20.000;  -27.000;    0.000
1031.826;   21.000;  -19.000;    0.000
1032.378;   34.000;  -28.000;    0.000
1032.929;   31.000;  -28.000;    0.000
1033.481;  -52.000;  -44.000;    0.000
1034.033;  -12.000;  -55.000;    0.000
1034.585;   -7.000;  -15.000;    0.000
1035.136;   69.000;  -80.000;    0.000
1035.688;   32.000;  -62.000;    0.000
1036.239;   -6.000;  -64.000;    0.000
1036.791;   52.000;  -43.000;    0.000
1037.342;   48.000;   -7.000;    0.000
1037.894;   65.000;    0.000;    0.000
1038.445;    4.000;  -43.000;    0.000
1038.996;   61.000;  -22.000;    0.000
1039.548;   38.000;  -37.000;    0.000
1040.099;   50.000;  -23.000;    0.000
1040.650;   64.000;  -40.000;    0.000
1041.201;   -6.000;  -61.000;    0.000
1041.752;   26.000;   19.000;    0.000
1042.303;    5.000; -118.000;    0.000
1042.854;  -27.000;  -99.000;    0.000
1043.405;   14.000;  -14.000;    0.000
1043.956;  -13.000;  -30.000;    0.000
1044.507;    9.000;  -48.000;    0.000
1045.058;   44.000;  -31.000;    0.000
1045.609;   37.000;  -31.000;    0.000
1046.159;   29.000;  -55.000;    0.000
1046.710;   70.000;  -83.000;    0.000
1047.261;  -18.000;  -76.000;    0.000
1047.811;    6.000;  -33.000;    0.000
1048.362;   14.000;  -47.000;    0.000
1048.912;   41.000;   49.000;    0.000
1049.463;   -9.000;   -5.000;    0.000
1050.013;  -27.000;  -40.000;    0.000
1050.563;   -1.000;  -76.000;    0.000
1051.114;  -25.000;  -29.000;    0.000
1051.664;   62.000;  -21.000;    0.000
1052.214;   40.000;  -48.000;    0.000
1052.764;   16.000;  -46.000;    0.000
1053.314;   70.000;  -56.000;    0.000
1053.864;   31.000;   -6.000;    0.000
1054.414;   15.000;  -54.000;    0.000
1054.964;    4.000;  -70.000;    0.000
1055.514;   -6.000;   21.000;    0.000
1056.064;   -9.000;  -16.000;    0.000
1056.614;   16.000;  -31.000;    0.000
1057.163;  -39.000;  -61.000;    0.000
1057.713;  -38.000;  -29.000;    0.000
1058.263;    1.000;  -83.000;    0.000
1058.812;  -28.000;  -32.000;    0.000
1059.362;   -2.000;  -67.000;    0.000
1059.912;   23.000;  -30.000;    0.000
1060.461;  -17.000;    8.000;    0.000
1061.010;    1.000;  -35.000;    0.000
1061.560;   -6.000;  -64.000;    0.000
1062.109;  -43.000;   -3.000;    0.000
1062.658;  -17.000;  -51.000;    0.000
1063.208;   -4.000;  -84.000;    0.000
1063.757;  -14.000;  -89.000;    0.000
1064.306;   -9.000;  -12.000;    0.000
1064.855;   26.000;  -39.000;    0.000
1065.404;   22.000;  -21.000;    0.000
1065.953;  -60.000;  -14.000;    0.000
1066.502;   13.000;  -20.000;    0.000
1067.051;   25.000;  -30.000;    0.000
1067.600;   17.000;  -37.000;    0.000
1068.149;   33.000;  -46.000;    0.000
1068.698;   -6.000;  -45.000;    0.000
1069.246;   -8.000;  -50.000;    0.000
1069.795;    9.000;  -65.000;    0.000
1070.344;   30.000;  -48.000;    0.000
1070.892;   45.000;  -61.000;    0.000
1071.441;   19.000;  -34.000;    0.000
1071.989;   26.000;  -33.000;    0.000
1072.538;   12.000;  -36.000;    0.000
1073.086;   45.000;  -12.000;    0.000
1073.634;  -12.000;  -38.000;    0.000
1074.183;  -46.000;  -43.000;    0.000
1074.731;  -41.000;  -92.000;    0.000
1075.279;   24.000;  -52.000;    0.000
1075.827;  -10.000;  -78.000;    0.000
1076.375;  -16.000;  -27.000;    0.000
1076.923;  -39.000;    5.000;    0.000
1077.471;    2.000;  -52.000;    0.000
1078.019;   74.000;  -58.000;    0.000
1078.567;  -47.000;  -47.000;    0.000
1079.115;  -56.000;  -71.000;    0.000
1079.663;   59.000;  -59.000;    0.000
1080.210;   17.000;  -34.000;    0.000
1080.758;  -13.000;  -27.000;    0.000
1081.306;   16.000;  -79.000;    0.000
1081.853;  -48.000;  -55.000;    0.000
1082.401;   -1.000;  -85.000;    0.000
1082.949;   -5.000;  -67.000;    0.000
1083.496;   31.000;  -39.000;    0.000
1084.043;    6.000;  -25.000;    0.000
1084.591;    4.000;  -53.000;    0.000
1085.138;   -6.000;  -18.000;    0.000
1085.685;   -7.000;  -79.000;    0.000
1086.233;   -8.000;  -39.000;    0.000
1086.780;   19.000;  -48.000;    0.000
1087.327;  -10.000;  -34.000;    0.000
1087.874;  -17.000;  -33.000;    0.000
1088.421;   63.000;  -11.000;    0.000
1088.968;  -38.000;  -59.000;    0.000
1089.515;   22.000;  -10.000;    0.000
1090.062;    1.000;   -9.000;    0.000
1090.609;  -20.000;  -24.000;    0.000
1091.156;   41.000;  -55.000;    0.000
1091.702;  -25.000;  -57.000;    0.000
1092.249;  -27.000;  -45.000;    0.000
1092.796;   -7.000;  -48.000;    0.000
1093.342;   54.000;  -24.000;    0.000
1093.889;   25.000;  -37.000;    0.000
1094.435;   29.000;  -26.000;    0.000
1094.982;  -43.000;  -60.000;    0.000
1095.528;  -60.000;  -68.000;    0.000
1096.075;   17.000;  -44.000;    0.000
1096.621;  -14.000;  -94.000;    0.000
1097.167;   -3.000;  -37.000;    0.000
1097.713;   52.000;  -66.000;    0.000
1098.259;  -10.000;  -42.000;    0.000
1098.806;  -30.000;  -46.000;    0.000
1099.352;   11.000;    3.000;    0.000
1099.898;   28.000;  -62.000;    0.000
1100.444;  -28.000;  -59.000;    0.000

