
Integration time [ms]:   1.050
Averaging Nr. [scans]: 1
Smoothing Nr. [pixels]: 0
Data measured with spectrometer [name]: 1701237U1
Wave   ;Sample   ;Dark     ;Reference
[nm]   ;[counts] ;[counts] ;[counts] 

173.876;   12.829;    7.002;    0.000
174.482;   -3.715;    9.001;    0.000
175.087;   51.994;   12.001;    0.000
175.693;  -74.637;   34.001;    0.000
176.298;   12.673;   10.002;    0.000
176.903;   -0.494;  -11.999;    0.000
177.509;   36.092;   19.000;    0.000
178.114;  -56.077;   -1.998;    0.000
178.719;   82.291;    3.001;    0.000
179.325;  -34.565;   -6.998;    0.000
179.930;    8.601;  -51.998;    0.000
180.535;   -1.967;  -13.999;    0.000
181.140;   40.771;   13.002;    0.000
181.745;   -9.211;    4.001;    0.000
182.351;   47.121;   15.000;    0.000
182.956;   20.144;   14.001;    0.000
183.561;   62.477;  -12.998;    0.000
184.166;    8.519;   43.001;    0.000
184.771;   69.072;    2.000;    0.000
185.376;   -8.774;   -1.999;    0.000
185.981;  -25.911;  -26.998;    0.000
186.586;  -51.680;    6.001;    0.000
187.191;   60.675;  -27.999;    0.000
187.796;   25.044;   37.002;    0.000
188.400;   45.022;   19.003;    0.000
189.005;   -5.901;  -54.998;    0.000
189.610;   17.125;   19.001;    0.000
190.215;   44.015;  -31.998;    0.000
190.820;   -5.536;   -6.998;    0.000
191.424;   -6.513;  -27.998;    0.000
192.029;  -16.757;  -12.997;    0.000
192.634;   34.647;  -13.997;    0.000
193.238;   28.672;  -57.999;    0.000
193.843;  -13.427;    9.003;    0.000
194.448;   35.579;    4.003;    0.000
195.052;  -33.556;   16.002;    0.000
195.657;  -31.001;  -14.997;    0.000
196.261;    4.368;   19.004;    0.000
196.866;   10.159;  -24.997;    0.000
197.470;   -3.747;   20.003;    0.000
198.075;   -7.447;  -67.997;    0.000
198.679;   22.172;  -26.996;    0.000
199.284;  -44.995;   22.002;    0.000
199.888;    5.512;   36.005;    0.000
200.492;   19.504;    2.003;    0.000
201.097;   -1.070;   40.003;    0.000
201.701;   59.016;   13.004;    0.000
202.305;    6.943;    5.002;    0.000
202.909;   47.874;  -17.998;    0.000
203.514;   21.823;   23.003;    0.000
204.118;   37.277;    0.000;    0.000
204.722;  -56.856;   99.001;    0.000
205.326;   55.933;  -12.998;    0.000
205.930;    8.210;    7.002;    0.000
206.534;   30.771;   -5.998;    0.000
207.138;   22.927;   42.002;    0.000
207.742;   26.132;   10.002;    0.000
208.346;   21.214;   18.003;    0.000
208.950;   37.985;   16.002;    0.000
209.554;    1.917;   55.002;    0.000
210.158;   28.224;  -36.997;    0.000
210.762;  -11.513;   -6.998;    0.000
211.366;   24.683;   23.002;    0.000
211.970;   28.197;  -29.998;    0.000
212.574;   28.690;  -21.997;    0.000
213.177;    7.930;  -15.997;    0.000
213.781;   80.305;  -12.997;    0.000
214.385;   -0.966;   10.002;    0.000
214.989;   85.930;  -18.997;    0.000
215.592;   -3.958;  -24.997;    0.000
216.196;   37.456;  -25.996;    0.000
216.800;  -35.183;    2.003;    0.000
217.403;   10.214;   25.003;    0.000
218.007;   -4.955;   17.004;    0.000
218.610;  -40.597;  -27.997;    0.000
219.214;  -28.044;  -24.998;    0.000
219.817;  -25.259;  -10.998;    0.000
220.421;  -24.444;   41.002;    0.000
221.024;   36.805;   33.004;    0.000
221.628;    0.082;  -11.995;    0.000
222.231;   46.032;  -29.997;    0.000
222.834;   17.526;  -18.998;    0.000
223.438;  -43.067;   21.002;    0.000
224.041;   19.984;    1.005;    0.000
224.644;    9.289;  -43.996;    0.000
225.248;    5.624;   -6.998;    0.000
225.851;   -4.468;  -28.998;    0.000
226.454;   14.012;  -44.997;    0.000
227.057;    2.989;   -6.997;    0.000
227.660;   -8.181;   40.002;    0.000
228.263;    9.520;   -6.997;    0.000
228.866;    0.423;    4.003;    0.000
229.470;   65.263;   -3.997;    0.000
230.073;   26.100;   -4.997;    0.000
230.676;  -44.706;    6.001;    0.000
231.279;  -70.310;   -4.997;    0.000
231.882;  -14.695;   -9.997;    0.000
232.484;  -20.165;   -1.998;    0.000
233.087;   18.357;   60.002;    0.000
233.690;  -67.591;  -26.998;    0.000
234.293;   61.526;   -5.998;    0.000
234.896;   -0.183;   -6.997;    0.000
235.499;   -6.192;   23.005;    0.000
236.101;   -1.327;  -43.998;    0.000
236.704;  -17.880;   33.003;    0.000
237.307;  -27.466;  -20.997;    0.000
237.910;  -13.232;   25.003;    0.000
238.512;   -7.692;   -7.998;    0.000
239.115;   -9.342;  -14.000;    0.000
239.717;  -77.052;    3.004;    0.000
240.320;   -1.208;    0.001;    0.000
240.923;   -6.910;    3.003;    0.000
241.525;   24.977;   26.004;    0.000
242.128;   -5.216;   -2.997;    0.000
242.730;  -27.259;   56.002;    0.000
243.332;   13.584;  -13.999;    0.000
243.935;    0.739;  -13.997;    0.000
244.537;   11.263;  -16.997;    0.000
245.140;  -17.177;  -14.997;    0.000
245.742;   16.954;    0.003;    0.000
246.344;   27.413;    3.003;    0.000
246.946;  -24.535;  -48.996;    0.000
247.549;   22.364;  -11.997;    0.000
248.151;   26.108;   -6.996;    0.000
248.753;   30.956;   -5.998;    0.000
249.355;  -16.824;   -1.996;    0.000
249.957;   13.405;  -15.998;    0.000
250.559;  -57.636;   44.003;    0.000
251.161;  -21.337;  -34.998;    0.000
251.764;    0.608;   -6.997;    0.000
252.366;   33.191;   33.002;    0.000
252.968;  -34.177;  -25.997;    0.000
253.570;  -62.737;    4.003;    0.000
254.171;  -50.369;  -94.997;    0.000
254.773;  -22.907;   33.002;    0.000
255.375;  -25.408;   21.003;    0.000
255.977;   17.281;   51.001;    0.000
256.579;   13.112;   48.002;    0.000
257.181;   38.882;  -20.997;    0.000
257.782;  -63.894;    3.003;    0.000
258.384;   17.214;    3.003;    0.000
258.986;   24.757;   34.002;    0.000
259.588;  -14.356;    8.002;    0.000
260.189;  -29.851;  -25.997;    0.000
260.791;   32.305;  -19.997;    0.000
261.392;   36.612;   10.003;    0.000
261.994;   15.299;   25.004;    0.000
262.596;    2.670;  -13.997;    0.000
263.197;   21.001;  -30.998;    0.000
263.799;   30.355;  -29.995;    0.000
264.400;  -40.509;  -44.997;    0.000
265.002;  -45.806;    9.003;    0.000
265.603;   93.683;  -50.998;    0.000
266.204;  -51.653;  -20.998;    0.000
266.806;   22.546;  -18.998;    0.000
267.407;  -21.115;  -47.997;    0.000
268.008;   39.513;   15.002;    0.000
268.610;   18.680;    9.003;    0.000
269.211;   37.426;   -5.996;    0.000
269.812;    5.089;    1.002;    0.000
270.413;   63.282;  -25.997;    0.000
271.014;  -35.773;  -27.997;    0.000
271.615;   14.747;  -32.998;    0.000
272.217;  -25.751;    5.002;    0.000
272.818;   52.530;   19.003;    0.000
273.419;   10.696;  -18.997;    0.000
274.020;   40.604;  -29.998;    0.000
274.621;  -16.248;  -41.996;    0.000
275.222;  -42.614;   15.002;    0.000
275.823;   -1.222;  -25.997;    0.000
276.423;   43.924;   -0.997;    0.000
277.024;    3.454;   43.002;    0.000
277.625;   35.247;  -34.997;    0.000
278.226;  -28.714;  -19.997;    0.000
278.827;   69.592;   11.003;    0.000
279.427;   42.807;  -11.997;    0.000
280.028;   -4.905;   -7.999;    0.000
280.629;   31.706;   29.003;    0.000
281.230;  -61.099;  -11.997;    0.000
281.830;  -17.121;  -59.996;    0.000
282.431;  -17.333;  218.003;    0.000
283.031;   -9.562;   10.002;    0.000
283.632;   34.325;   47.003;    0.000
284.233;    9.514;  -33.997;    0.000
284.833;    2.397;    2.004;    0.000
285.434;  -40.620;  -68.998;    0.000
286.034;   44.265;   -0.999;    0.000
286.634;    6.296;   14.003;    0.000
287.235;   -4.698;  -32.997;    0.000
287.835;  -60.849;  -26.998;    0.000
288.435;   17.741;  -13.998;    0.000
289.036;  -19.194;    0.002;    0.000
289.636;   63.790;   13.002;    0.000
290.236;   24.437;    4.005;    0.000
290.837;   63.779;  -36.999;    0.000
291.437;  -13.999;   11.002;    0.000
292.037;    4.027;   -7.999;    0.000
292.637;  -11.897;  -38.998;    0.000
293.237;  -25.882;  -23.998;    0.000
293.837;  -10.919;   50.003;    0.000
294.437;  -29.656;    0.003;    0.000
295.037;   -8.927;  -27.998;    0.000
295.637;   61.685;  -28.999;    0.000
296.237;   66.587;    6.001;    0.000
296.837;   -2.194;   15.002;    0.000
297.437;   -6.825;   56.003;    0.000
298.037;    5.828;   -7.999;    0.000
298.637;  -24.579;  -19.999;    0.000
299.237;   38.540;  -10.997;    0.000
299.836;   18.402;  -27.999;    0.000
300.436;    2.888;   -7.998;    0.000
301.036;   42.398;   -9.999;    0.000
301.636;   43.208;  -19.997;    0.000
302.235;   33.077;  -20.997;    0.000
302.835;   60.652;  -59.999;    0.000
303.434;   -7.499;  -13.997;    0.000
304.034;  -36.867;  -12.996;    0.000
304.634;   15.444;  -21.998;    0.000
305.233;   18.917;    0.002;    0.000
305.833;  -15.532;    6.002;    0.000
306.432;    8.380;  -40.998;    0.000
307.032;    1.393;    6.003;    0.000
307.631;  -17.483;   25.002;    0.000
308.230;  -55.363;  -23.997;    0.000
308.830;   12.178;  -42.997;    0.000
309.429;   11.694;  -49.996;    0.000
310.028;    7.362;  -40.996;    0.000
310.628;  -18.496;   -8.997;    0.000
311.227;   35.186;   18.004;    0.000
311.826;   10.302;   -8.997;    0.000
312.425;   53.777;  -14.998;    0.000
313.024;   15.924;   -3.997;    0.000
313.623;    9.819;  -31.998;    0.000
314.223;  -50.933;   31.003;    0.000
314.822;   46.768;  -35.997;    0.000
315.421;  -58.531;   11.004;    0.000
316.020;   18.583;   30.003;    0.000
316.619;   -1.596;  -29.995;    0.000
317.218;   63.225;   12.004;    0.000
317.816;  -24.033;  -53.996;    0.000
318.415;   25.780;    6.002;    0.000
319.014;    1.762;  -18.996;    0.000
319.613;   31.186;   21.004;    0.000
320.212;  -11.111;   54.004;    0.000
320.811;   -3.022;    3.005;    0.000
321.409;   -5.532;   -8.998;    0.000
322.008;   29.680;   -4.997;    0.000
322.607;   26.906;  -56.995;    0.000
323.205;   22.420;  -28.996;    0.000
323.804;    4.742;   -9.996;    0.000
324.403;   77.913;  -27.994;    0.000
325.001;   54.574;    4.005;    0.000
325.600;   40.779;   30.005;    0.000
326.198;   40.658;  -29.996;    0.000
326.797;    2.427;  -44.995;    0.000
327.395;   -8.575;  -17.994;    0.000
327.994;   49.768;  -27.992;    0.000
328.592;   -5.857;   -8.992;    0.000
329.190;   75.600;   49.009;    0.000
329.789;  -38.117;  -13.991;    0.000
330.387;  -22.055;    3.009;    0.000
330.985;    9.834;  -11.991;    0.000
331.583;  -26.510;  -39.990;    0.000
332.182;   -6.679;   17.011;    0.000
332.780;   31.716;    7.011;    0.000
333.378;   32.284;  -23.987;    0.000
333.976;   60.768;   -9.988;    0.000
334.574;   28.655;  -65.987;    0.000
335.172;   56.964;  -70.988;    0.000
335.770;   38.028;   -3.989;    0.000
336.368;   64.801;   36.012;    0.000
336.966;   98.874;   13.010;    0.000
337.564;   17.771;  -40.989;    0.000
338.162;   48.689;   51.010;    0.000
338.760;   65.586;  -15.992;    0.000
339.358;   22.701;  -33.991;    0.000
339.956;  102.570;  -12.991;    0.000
340.554;   -9.205;  -23.991;    0.000
341.151;   55.512;   26.009;    0.000
341.749;   48.177;  -11.990;    0.000
342.347;   -0.959;  -28.990;    0.000
342.944;   28.274;  -21.987;    0.000
343.542;   66.820;  -27.989;    0.000
344.140;   31.448;  -42.989;    0.000
344.737;   14.827;  -33.988;    0.000
345.335;   49.552;   26.010;    0.000
345.932;  124.630;   -4.990;    0.000
346.530;   28.740;   -7.991;    0.000
347.127;   67.832;   -4.990;    0.000
347.725;   20.107;   41.011;    0.000
348.322;   62.291;    5.010;    0.000
348.920;    1.138;   18.010;    0.000
349.517;   83.542;   46.010;    0.000
350.114;   57.249;  -47.989;    0.000
350.712;   41.998;  -80.990;    0.000
351.309;   56.848;  -12.991;    0.000
351.906;   30.642;  -18.991;    0.000
352.503;   42.379;   -6.991;    0.000
353.100;   57.890;   -7.990;    0.000
353.698;  130.616;    4.008;    0.000
354.295;   32.656;   40.010;    0.000
354.892;   39.321;   -4.989;    0.000
355.489;   60.108;  -60.991;    0.000
356.086;   54.025;   20.011;    0.000
356.683;   15.496;  -27.991;    0.000
357.280;   70.774;    6.011;    0.000
357.877;  113.253;    0.011;    0.000
358.474;   39.373;  -25.990;    0.000
359.070;   69.516;  -33.991;    0.000
359.667;   97.135;  -17.990;    0.000
360.264;   43.871;   17.010;    0.000
360.861;   79.386;   -9.989;    0.000
361.458;   85.186;  -22.992;    0.000
362.054;   80.474;  -42.990;    0.000
362.651;   94.942;   19.009;    0.000
363.248;   54.912;   13.009;    0.000
363.844;  115.127;  -34.991;    0.000
364.441;   39.867;  -22.991;    0.000
365.037;   90.633;    1.009;    0.000
365.634;  101.131;  -45.991;    0.000
366.230;  141.225;  -28.992;    0.000
366.827;  103.160;    9.009;    0.000
367.423;   61.373;  -26.990;    0.000
368.020;   97.053;   -8.991;    0.000
368.616;   78.001;   -8.990;    0.000
369.213;  134.314;   40.010;    0.000
369.809;  111.734;    7.010;    0.000
370.405;   88.266;  -42.993;    0.000
371.001;  106.136;   36.011;    0.000
371.598;  142.927;   22.011;    0.000
372.194;  185.851;  -19.990;    0.000
372.790;  139.498;  -41.992;    0.000
373.386;  178.336;  -20.991;    0.000
373.982;  157.011;    0.010;    0.000
374.578;  129.564;  -40.991;    0.000
375.174;  177.993;  -35.988;    0.000
375.770;  177.904;  -38.990;    0.000
376.366;  146.601;  -27.990;    0.000
376.962;  196.943;    4.010;    0.000
377.558;  248.906;  -25.991;    0.000
378.154;  164.457;  -67.991;    0.000
378.750;  173.816;  -24.990;    0.000
379.346;  218.246;  -25.990;    0.000
379.942;  170.210;   12.011;    0.000
380.537;  220.458;   35.011;    0.000
381.133;  223.777;  -51.990;    0.000
381.729;  278.059;  -65.991;    0.000
382.325;  212.368;   33.008;    0.000
382.920;  292.168;   16.010;    0.000
383.516;  225.447;  -21.991;    0.000
384.111;  240.089;  -27.990;    0.000
384.707;  230.360;  -50.989;    0.000
385.302;  233.044;  -18.989;    0.000
385.898;  245.314;   18.010;    0.000
386.493;  300.702;  -22.989;    0.000
387.089;  248.960;   36.011;    0.000
387.684;  238.998;   13.010;    0.000
388.280;  248.822;  -40.990;    0.000
388.875;  290.332;   -6.992;    0.000
389.470;  280.634;  -28.989;    0.000
390.066;  328.177;   -7.990;    0.000
390.661;  329.662;   31.009;    0.000
391.256;  331.220;    0.011;    0.000
391.851;  299.943;  -20.990;    0.000
392.446;  304.513;    4.010;    0.000
393.041;  253.395;    0.009;    0.000
393.637;  339.555;  -11.991;    0.000
394.232;  275.343;   10.010;    0.000
394.827;  349.564;    2.009;    0.000
395.422;  292.266;    2.012;    0.000
396.017;  328.072;   56.009;    0.000
396.612;  310.146;   48.011;    0.000
397.206;  422.216;  -46.990;    0.000
397.801;  373.705; 1129.010;    0.000
398.396;  424.275;   43.010;    0.000
398.991;  428.373;   -5.990;    0.000
399.586;  414.741;    8.011;    0.000
400.180;  368.627;  -22.990;    0.000
400.775;  447.920;   23.010;    0.000
401.370;  426.205;   -9.992;    0.000
401.965;  451.611;  -34.990;    0.000
402.559;  449.910;  -13.990;    0.000
403.154;  434.705;  -20.990;    0.000
403.748;  490.326;  -37.991;    0.000
404.343;  519.826;  -24.990;    0.000
404.937;  457.246;  -44.990;    0.000
405.532;  522.357;   -4.989;    0.000
406.126;  452.966;  -11.989;    0.000
406.721;  554.766;   -0.991;    0.000
407.315;  569.334;  -49.990;    0.000
407.909;  499.929;  -41.990;    0.000
408.504;  571.889;  -17.992;    0.000
409.098;  589.949;  -41.990;    0.000
409.692;  615.512;  -21.991;    0.000
410.286;  695.092;  -12.991;    0.000
410.881;  607.086;   -6.990;    0.000
411.475;  644.248;   -8.991;    0.000
412.069;  597.199;   23.009;    0.000
412.663;  707.063;  -34.991;    0.000
413.257;  711.981;   50.009;    0.000
413.851;  728.303;  -22.992;    0.000
414.445;  707.232;  -17.990;    0.000
415.039;  689.127;  -11.991;    0.000
415.633;  638.213;  -18.990;    0.000
416.227;  678.174;  -26.990;    0.000
416.821;  741.558;  -32.990;    0.000
417.415;  777.153;  -14.992;    0.000
418.008;  719.623;  -19.991;    0.000
418.602;  725.392;  -70.990;    0.000
419.196;  733.297;   11.009;    0.000
419.790;  900.283;  -43.992;    0.000
420.383;  779.610;  -30.991;    0.000
420.977;  830.332;    2.008;    0.000
421.571;  878.955;  -26.991;    0.000
422.164;  872.329;   20.008;    0.000
422.758;  837.504;  -35.992;    0.000
423.351;  873.717;   -2.991;    0.000
423.945;  868.133;    7.008;    0.000
424.538;  879.895;    9.008;    0.000
425.132;  862.408;  -19.991;    0.000
425.725;  996.577;  -19.992;    0.000
426.318;  936.580;   49.009;    0.000
426.912;  967.071;   -9.993;    0.000
427.505;  921.823;   35.007;    0.000
428.098;  891.387;   38.008;    0.000
428.692; 1047.251;   52.008;    0.000
429.285; 1018.506;  -20.991;    0.000
429.878; 1148.971;   -4.991;    0.000
430.471; 1085.716;  -39.993;    0.000
431.064; 1108.348;   -6.992;    0.000
431.657; 1065.071;  -29.993;    0.000
432.250; 1141.368;   22.008;    0.000
432.843; 1223.253;  -71.993;    0.000
433.436; 1181.717;    0.009;    0.000
434.029; 1230.136;  -62.993;    0.000
434.622; 1207.485;  -18.992;    0.000
435.215; 1305.382;    9.006;    0.000
435.808; 1214.130;  -77.993;    0.000
436.401; 1360.819;    0.007;    0.000
436.994; 1321.524;    7.008;    0.000
437.586; 1379.159;  -50.993;    0.000
438.179; 1343.497;  -26.993;    0.000
438.772; 1369.829;   23.007;    0.000
439.364; 1346.651;  -27.992;    0.000
439.957; 1463.158;   -1.994;    0.000
440.550; 1435.696;  -40.993;    0.000
441.142; 1445.732;   31.007;    0.000
441.735; 1406.629;    2.009;    0.000
442.327; 1466.948;   -7.992;    0.000
442.920; 1413.562;  -22.994;    0.000
443.512; 1464.647;   20.007;    0.000
444.104; 1474.807;  -37.992;    0.000
444.697; 1527.708;  -18.994;    0.000
445.289; 1435.997;   -5.992;    0.000
445.881; 1492.208;    9.007;    0.000
446.474; 1509.738;  -61.994;    0.000
447.066; 1536.161;  -28.994;    0.000
447.658; 1377.807;    9.008;    0.000
448.250; 1568.487;  -30.993;    0.000
448.843; 1558.116;  -52.993;    0.000
449.435; 1602.369;  -18.995;    0.000
450.027; 1570.069;   26.009;    0.000
450.619; 1647.485;  -36.992;    0.000
451.211; 1741.772;  -10.992;    0.000
451.803; 1700.312;  -15.993;    0.000
452.395; 1736.200;  -10.994;    0.000
452.987; 1706.187;  -16.994;    0.000
453.579; 1665.826;  -39.994;    0.000
454.170; 1841.346;  -56.995;    0.000
454.762; 1841.154;   20.005;    0.000
455.354; 1887.040;    3.006;    0.000
455.946; 1868.351;   -9.993;    0.000
456.537; 2078.232;  -17.995;    0.000
457.129; 1992.673;   -5.993;    0.000
457.721; 1982.053;    8.005;    0.000
458.312; 2109.574;  -13.995;    0.000
458.904; 2146.161;  -36.994;    0.000
459.496; 2165.624;   19.007;    0.000
460.087; 2220.804;  -50.993;    0.000
460.679; 2312.620;  -11.994;    0.000
461.270; 2249.171;   15.006;    0.000
461.862; 2346.304;  -39.994;    0.000
462.453; 2384.280;   20.004;    0.000
463.044; 2426.888;  -12.994;    0.000
463.636; 2471.912;   12.004;    0.000
464.227; 2495.347;   20.006;    0.000
464.818; 2449.558;  -13.994;    0.000
465.409; 2497.377;  -13.996;    0.000
466.001; 2414.617;  -25.994;    0.000
466.592; 2620.625;  -11.996;    0.000
467.183; 2536.668;  -17.996;    0.000
467.774; 2576.242;   -0.995;    0.000
468.365; 2618.210;  -20.994;    0.000
468.956; 2693.171;  -14.994;    0.000
469.547; 2639.402;  -57.994;    0.000
470.138; 2741.318;  -46.994;    0.000
470.729; 2858.165;   30.007;    0.000
471.320; 2991.183;    4.005;    0.000
471.911; 2848.848;  -26.995;    0.000
472.502; 3043.784;  -20.993;    0.000
473.092; 2928.664;  -28.996;    0.000
473.683; 2815.331;  -12.993;    0.000
474.274; 3016.078;   -3.996;    0.000
474.865; 3106.744;  -26.994;    0.000
475.455; 3107.092;    8.005;    0.000
476.046; 3317.004;   48.005;    0.000
476.637; 3211.443;  -19.995;    0.000
477.227; 3250.242;   -7.995;    0.000
477.818; 3381.053;   -2.995;    0.000
478.408; 3441.131;   -5.995;    0.000
478.999; 3473.281;  -53.995;    0.000
479.589; 3754.728;   -9.994;    0.000
480.180; 3706.029;   -3.996;    0.000
480.770; 3750.912;  -42.996;    0.000
481.360; 3812.981;  -40.996;    0.000
481.951; 3870.037;  -16.995;    0.000
482.541; 4050.976;    1.006;    0.000
483.131; 3982.812;   -1.995;    0.000
483.721; 4143.557;  -16.996;    0.000
484.312; 4064.228;   26.005;    0.000
484.902; 4357.541;   12.005;    0.000
485.492; 4519.817;    9.003;    0.000
486.082; 4400.410;  -32.996;    0.000
486.672; 4509.143;   18.004;    0.000
487.262; 4348.957;   -0.996;    0.000
487.852; 4670.395;   26.005;    0.000
488.442; 4872.841;   27.005;    0.000
489.032; 4964.088;   56.004;    0.000
489.622; 5065.075;  -14.996;    0.000
490.212; 5017.844;   40.004;    0.000
490.801; 5127.869;  -74.996;    0.000
491.391; 5107.815;   -5.996;    0.000
491.981; 5296.567;  -49.996;    0.000
492.571; 5452.276;  -20.997;    0.000
493.160; 5369.594;  -65.995;    0.000
493.750; 5566.769;  -24.995;    0.000
494.340; 5435.365;  -34.995;    0.000
494.929; 5713.612;   19.003;    0.000
495.519; 5579.584;   24.005;    0.000
496.108; 5854.916;  -22.995;    0.000
496.698; 5720.503;   -3.994;    0.000
497.287; 5793.141;   19.005;    0.000
497.876; 5833.932;   -1.996;    0.000
498.466; 5701.156;   10.004;    0.000
499.055; 5918.623;  -66.995;    0.000
499.645; 6060.518;  -49.996;    0.000
500.234; 5968.297;   -5.995;    0.000
500.823; 6108.619;  -50.996;    0.000
501.412; 6109.773;  -22.995;    0.000
502.001; 5928.730;  -44.995;    0.000
502.591; 6029.844;   -4.996;    0.000
503.180; 6096.473;    7.005;    0.000
503.769; 6031.512;  -34.995;    0.000
504.358; 6114.020;    7.004;    0.000
504.947; 6232.707;  -17.996;    0.000
505.536; 6160.209;   -5.995;    0.000
506.125; 6323.541;  -31.995;    0.000
506.714; 6137.561;  -26.995;    0.000
507.303; 6078.343;  -17.994;    0.000
507.891; 6348.402;   17.006;    0.000
508.480; 6482.303;    3.004;    0.000
509.069; 6450.396;  -43.994;    0.000
509.658; 6591.537;   39.004;    0.000
510.246; 6456.558;    7.006;    0.000
510.835; 6679.672;  -28.995;    0.000
511.424; 6586.443;  -61.995;    0.000
512.012; 6812.565;  -17.998;    0.000
512.601; 6746.857;   48.005;    0.000
513.189; 6795.594;  -11.995;    0.000
513.778; 6757.174;  -19.995;    0.000
514.366; 6847.576;    7.004;    0.000
514.955; 7016.963;   -6.997;    0.000
515.543; 7029.912;   26.004;    0.000
516.132; 6981.857;  -13.995;    0.000
516.720; 6937.352;   30.004;    0.000
517.308; 7194.537;  -23.996;    0.000
517.896; 7221.977;  -30.996;    0.000
518.485; 7251.195;    7.004;    0.000
519.073; 7487.388;  -60.995;    0.000
519.661; 7268.446;    7.004;    0.000
520.249; 7457.869;  -11.996;    0.000
520.837; 7832.375;  -46.995;    0.000
521.425; 7516.192;   10.004;    0.000
522.013; 7768.055;   18.004;    0.000
522.601; 7749.010;  -29.996;    0.000
523.189; 7903.430;  -43.996;    0.000
523.777; 7835.287;  -40.995;    0.000
524.365; 7730.213;  -50.995;    0.000
524.953; 8096.573;  -26.997;    0.000
525.541; 8164.219;    3.005;    0.000
526.129; 8366.736;  -13.996;    0.000
526.716; 8229.018;  -81.997;    0.000
527.304; 8637.231;    7.004;    0.000
527.892; 8233.101;  -14.995;    0.000
528.479; 8201.524;  -29.997;    0.000
529.067; 8499.482;    1.005;    0.000
529.655; 8585.139;  -12.997;    0.000
530.242; 8673.424;   -9.995;    0.000
530.830; 8872.846;   47.003;    0.000
531.417; 8895.162;  -30.996;    0.000
532.005; 8836.215;   15.004;    0.000
532.592; 8816.862;    2.003;    0.000
533.179; 8785.745;   27.003;    0.000
533.767; 8951.922;   34.004;    0.000
534.354; 8874.016;    9.004;    0.000
534.941; 8883.211;   26.004;    0.000
535.529; 8932.077;  -28.997;    0.000
536.116; 9035.053;   -1.995;    0.000
536.703; 8793.448;  -18.998;    0.000
537.290; 9083.003;  -76.997;    0.000
537.877; 8979.061;  -26.997;    0.000
538.464; 8995.645;   56.004;    0.000
539.051; 8802.169;  -20.997;    0.000
539.638; 8960.272;  -36.997;    0.000
540.225; 8873.407;  -15.996;    0.000
540.812; 8895.716;  -28.997;    0.000
541.399; 8992.443;    4.005;    0.000
541.986; 9011.407;   50.004;    0.000
542.573; 9112.042;   10.003;    0.000
543.160; 8820.352;    8.004;    0.000
543.746; 8964.083;  -25.998;    0.000
544.333; 9038.944;   14.003;    0.000
544.920; 9136.937;    5.002;    0.000
545.506; 8914.651;   13.003;    0.000
546.093; 9258.508;    6.004;    0.000
546.680; 9454.772;  -26.996;    0.000
547.266; 9347.233;   23.003;    0.000
547.853; 9379.618;  -18.997;    0.000
548.439; 9453.468;  -26.998;    0.000
549.025; 9752.712;  -56.998;    0.000
549.612; 9751.537;   -0.996;    0.000
550.198; 9898.803;   24.003;    0.000
550.785; 9923.563;  -32.997;    0.000
551.371;10024.314;   17.001;    0.000
551.957;10095.897;  -39.998;    0.000
552.543;10094.818;  -29.995;    0.000
553.130;10454.918;  -11.996;    0.000
553.716;10433.003;  -39.997;    0.000
554.302;10490.158;   -4.998;    0.000
554.888;10364.991;    2.002;    0.000
555.474;10608.725;  -42.997;    0.000
556.060;10862.289;   12.004;    0.000
556.646;10815.423;  -59.997;    0.000
557.232;10927.159;  -11.997;    0.000
557.818;10745.683;   -6.998;    0.000
558.404;10925.696;  -24.997;    0.000
558.990;11108.994;   -7.995;    0.000
559.576;11047.909;   72.004;    0.000
560.161;11095.219;  -53.995;    0.000
560.747;11357.362;  -44.996;    0.000
561.333;11369.637;   -7.997;    0.000
561.918;11407.821;  -23.996;    0.000
562.504;11542.116;  -33.997;    0.000
563.090;11554.100;   -6.997;    0.000
563.675;11424.520;    4.003;    0.000
564.261;11601.583;   -9.997;    0.000
564.846;11873.208;  -27.997;    0.000
565.432;11653.407;   29.004;    0.000
566.017;11797.817;  -18.997;    0.000
566.603;11804.370;  -19.998;    0.000
567.188;11895.358;  -62.996;    0.000
567.773;12068.728;  -13.998;    0.000
568.359;12252.161;  -18.998;    0.000
568.944;11922.960;    3.003;    0.000
569.529;12100.569;  -13.997;    0.000
570.114;12209.972;   -2.998;    0.000
570.699;12204.979;  -22.997;    0.000
571.284;12113.717;    3.004;    0.000
571.870;12270.962;   -7.998;    0.000
572.455;12314.663;  -22.998;    0.000
573.040;12506.313;  -86.996;    0.000
573.625;12452.097;   11.003;    0.000
574.209;12411.510;  -15.997;    0.000
574.794;12548.326;  -41.995;    0.000
575.379;12550.009;  -22.997;    0.000
575.964;12691.845;  -18.998;    0.000
576.549;12731.829;   12.002;    0.000
577.134;12911.571;  -31.998;    0.000
577.718;12895.429;   -2.998;    0.000
578.303;12849.749;  -18.997;    0.000
578.888;13012.118;  -36.998;    0.000
579.472;12651.954;    8.003;    0.000
580.057;12985.674;    4.004;    0.000
580.641;12789.155;  -36.997;    0.000
581.226;12751.097;  -14.997;    0.000
581.810;12982.139;   -5.997;    0.000
582.395;13064.311;  -15.997;    0.000
582.979;13143.606;  -27.996;    0.000
583.564;13124.942;   58.004;    0.000
584.148;13055.670;  -14.997;    0.000
584.732;13254.147;  -26.996;    0.000
585.317;13132.729;   12.003;    0.000
585.901;13147.244;  -45.996;    0.000
586.485;12939.481;   -4.997;    0.000
587.069;13201.716;  -34.997;    0.000
587.653;13023.677;   15.003;    0.000
588.237;12950.253;   14.003;    0.000
588.821;12828.872;  -18.997;    0.000
589.405;12971.644;  174.002;    0.000
589.989;12997.299;    1.004;    0.000
590.573;12626.523;  -19.998;    0.000
591.157;13095.036;    5.004;    0.000
591.741;12684.009;   -8.997;    0.000
592.325;12943.829;   25.002;    0.000
592.909;12906.860;  -42.996;    0.000
593.492;12876.946;  -35.998;    0.000
594.076;12906.495;  -50.997;    0.000
594.660;12660.761;   -5.998;    0.000
595.244;12576.103;  -12.998;    0.000
595.827;13159.247;  -18.997;    0.000
596.411;12999.597;  -19.999;    0.000
596.994;13027.191;   21.002;    0.000
597.578;12963.565;   21.002;    0.000
598.161;12730.137;   18.004;    0.000
598.745;12989.263;  -68.997;    0.000
599.328;13114.915;   10.003;    0.000
599.911;12750.475;  -74.996;    0.000
600.495;12714.782;  -46.996;    0.000
601.078;13178.956;  -10.998;    0.000
601.661;12736.761;   52.002;    0.000
602.245;12844.444;    1.002;    0.000
602.828;12931.288;  -44.998;    0.000
603.411;12986.858;   -2.998;    0.000
603.994;13121.832;   47.005;    0.000
604.577;12905.194;    6.003;    0.000
605.160;13030.110;    1.003;    0.000
605.743;13126.009;  -43.997;    0.000
606.326;12999.526;   -4.998;    0.000
606.909;13167.377;    8.004;    0.000
607.492;13007.071;  -12.997;    0.000
608.075;12940.044;  -16.998;    0.000
608.658;13183.517;  -19.998;    0.000
609.240;13169.731;  -21.998;    0.000
609.823;13307.559;  -25.997;    0.000
610.406;13134.725;  -59.997;    0.000
610.989;13177.341;  -17.998;    0.000
611.571;13193.070;   10.002;    0.000
612.154;13137.735;  -24.997;    0.000
612.736;13225.109;  -20.998;    0.000
613.319;13072.940;   -1.997;    0.000
613.901;13030.565;  -16.998;    0.000
614.484;12862.237;   -2.997;    0.000
615.066;12541.264;   -7.996;    0.000
615.649;12717.792;  -45.999;    0.000
616.231;12617.970;  -22.997;    0.000
616.813;12693.297;   22.005;    0.000
617.396;12577.226;  -82.994;    0.000
617.978;12690.312;   20.007;    0.000
618.560;12808.000;  -28.996;    0.000
619.142;13310.721;  -10.995;    0.000
619.724;13039.838;  -46.995;    0.000
620.306;12766.889;   15.004;    0.000
620.889;12993.081;  -43.997;    0.000
621.471;13025.700;   44.003;    0.000
622.053;13156.149;  -10.997;    0.000
622.635;13051.596;   17.004;    0.000
623.216;13211.249;  -63.998;    0.000
623.798;13366.244;    8.004;    0.000
624.380;13238.862;  -63.997;    0.000
624.962;13081.606;   19.004;    0.000
625.544;13298.182;   33.004;    0.000
626.125;13215.858;  -31.998;    0.000
626.707;13203.022;  -15.997;    0.000
627.289;13436.232;  -33.995;    0.000
627.870;13117.817;   -9.997;    0.000
628.452;13205.081;   -2.997;    0.000
629.034;13321.221;    8.004;    0.000
629.615;13199.996;  -45.996;    0.000
630.197;13088.299;  -64.996;    0.000
630.778;13242.628;  -34.997;    0.000
631.359;13268.902;  -22.996;    0.000
631.941;13212.891;   24.003;    0.000
632.522;13002.624;  -34.998;    0.000
633.103;13003.942;  -55.996;    0.000
633.685;13164.547;  -22.996;    0.000
634.266;13330.094;  -42.996;    0.000
634.847;13083.264;   -5.996;    0.000
635.428;13313.939;    1.005;    0.000
636.009;12894.100;    0.003;    0.000
636.590;13467.563;  -78.997;    0.000
637.171;13114.484;  -82.994;    0.000
637.752;12941.648;  -32.996;    0.000
638.333;12739.395;  -62.995;    0.000
638.914;13094.186;    8.004;    0.000
639.495;12994.627;  -40.994;    0.000
640.076;12971.759;  -20.996;    0.000
640.657;13139.777;  -73.996;    0.000
641.238;13070.795;   17.004;    0.000
641.818;13053.813;  -21.996;    0.000
642.399;12769.830;  -51.996;    0.000
642.980;13185.848;   10.004;    0.000
643.560;13078.866;  -46.996;    0.000
644.141;13131.884;  -36.996;    0.000
644.721;13033.901;   -4.996;    0.000
645.302;12960.919;  -27.996;    0.000
645.882;12917.937;   21.004;    0.000
646.463;12977.955;  -10.996;    0.000
647.043;13146.972;  -39.996;    0.000
647.624;12860.990;  -25.996;    0.000
648.204;12847.008;   12.004;    0.000
648.784;13049.026;  -10.996;    0.000
649.365;13034.043;  -12.996;    0.000
649.945;13158.061;  -11.996;    0.000
650.525;12977.079;  -36.996;    0.000
651.105;12898.097;  -23.996;    0.000
651.685;13307.114;  -26.996;    0.000
652.265;12981.132;   24.004;    0.000
652.845;12838.150;  -17.996;    0.000
653.425;12967.168;   46.004;    0.000
654.005;12960.185;   -1.996;    0.000
654.585;12956.203;  -50.996;    0.000
655.165;12827.221;  -33.996;    0.000
655.745;12833.239;   -4.996;    0.000
656.325;13160.256;  -44.996;    0.000
656.905;13240.274;  -56.996;    0.000
657.484;13401.292;    1.004;    0.000
658.064;13498.310;   -2.996;    0.000
658.644;13171.327;  -57.996;    0.000
659.223;13582.345;  -49.996;    0.000
659.803;13377.363;  -27.996;    0.000
660.382;13749.381;  -28.996;    0.000
660.962;13836.398;  -78.996;    0.000
661.541;13398.416;  -30.996;    0.000
662.121;13576.434;  -62.996;    0.000
662.700;13705.452;  -27.996;    0.000
663.280;13255.469;  -61.996;    0.000
663.859;12510.487;    3.003;    0.000
664.438;12496.505;   25.003;    0.000
665.017;12384.523;  -44.997;    0.000
665.597;12273.540;    2.003;    0.000
666.176;12300.558;    7.003;    0.000
666.755;12374.576;   -9.997;    0.000
667.334;12448.594;  -40.997;    0.000
667.913;12175.611;  -23.997;    0.000
668.492;12399.629;   -2.997;    0.000
669.071;12317.647;  -37.997;    0.000
669.650;12131.665;  -70.997;    0.000
670.229;12111.682;  -93.997;    0.000
670.808;12412.700;  -17.997;    0.000
671.387;12198.718;  -14.997;    0.000
671.965;12291.735;   -8.997;    0.000
672.544;12530.753;  -46.997;    0.000
673.123;12714.771;  -34.997;    0.000
673.702;12587.789;  -40.997;    0.000
674.280;12491.806;    9.003;    0.000
674.859;12602.824;  -17.997;    0.000
675.437;12615.842;  -10.997;    0.000
676.016;12756.860;   11.003;    0.000
676.594;12740.877;  -65.997;    0.000
677.173;12694.895;  -14.997;    0.000
677.751;12891.913;    1.003;    0.000
678.330;12990.931;  -26.997;    0.000
678.908;12614.948;  -17.997;    0.000
679.486;12827.966;  -34.997;    0.000
680.065;13169.984;    1.003;    0.000
680.643;12831.002;  -76.997;    0.000
681.221;12728.019;  -16.997;    0.000
681.799;13085.037;  -30.997;    0.000
682.377;13293.055;  -34.997;    0.000
682.955;13316.073;  -52.997;    0.000
683.533;12974.090;   -7.997;    0.000
684.111;13415.108;  -59.997;    0.000
684.689;13397.126;  -14.997;    0.000
685.267;13360.144;  -20.997;    0.000
685.845;13531.161;  -35.997;    0.000
686.423;13260.179;    8.003;    0.000
687.001;13160.197;  -55.997;    0.000
687.579;13210.215;    7.003;    0.000
688.156;13169.232;  -17.997;    0.000
688.734;13093.250;  -25.997;    0.000
689.312;13185.268;  -47.997;    0.000
689.889;13255.286;  -35.997;    0.000
690.467;13078.303;  -37.997;    0.000
691.044;12836.321;  -48.997;    0.000
691.622;12867.339;   31.003;    0.000
692.199;12996.357;   -3.997;    0.000
692.777;12730.374;  -35.997;    0.000
693.354;12962.392;    5.003;    0.000
693.932;12265.410;   -9.997;    0.000
694.509;12387.428;  -39.997;    0.000
695.086;12537.445;  -33.997;    0.000
695.663;12044.463;  -39.997;    0.000
696.241;12028.481;  -66.997;    0.000
696.818;12048.499;  -74.997;    0.000
697.395;12412.516;  -33.997;    0.000
697.972;12126.534;  -16.997;    0.000
698.549;11971.552;  -67.997;    0.000
699.126;12059.570;  -18.997;    0.000
699.703;11897.587;  -16.997;    0.000
700.280;11811.605;    3.003;    0.000
700.857;11660.623;   10.003;    0.000
701.434;11461.641;  -45.997;    0.000
702.010;11442.658;   -8.997;    0.000
702.587;11336.676;  -53.997;    0.000
703.164;11300.694;   20.003;    0.000
703.741;11395.712;  -16.997;    0.000
704.317;10911.729;  -44.997;    0.000
704.894;10774.747;  -33.997;    0.000
705.471;11103.765;  -24.997;    0.000
706.047;10895.783;  -25.997;    0.000
706.624;10832.800;   -1.997;    0.000
707.200;10901.818;  -35.997;    0.000
707.776;10554.836;  -40.997;    0.000
708.353;10579.854;  -93.997;    0.000
708.929;10856.871;    5.003;    0.000
709.506;10575.889;   -4.997;    0.000
710.082;10561.907;  -57.997;    0.000
710.658;10246.925;  -33.997;    0.000
711.234;10302.942;  -10.997;    0.000
711.810;10455.960;   -0.997;    0.000
712.387;10034.978;  -39.997;    0.000
712.963;10014.995;   -8.997;    0.000
713.539;10161.013;   23.003;    0.000
714.115;10011.031;  -54.997;    0.000
714.691;10171.049;   -7.997;    0.000
715.267;10125.066;  -79.997;    0.000
715.842; 9939.084;   -1.997;    0.000
716.418;10054.102;  -15.997;    0.000
716.994;10035.120;  -38.997;    0.000
717.570;10015.137;  -21.997;    0.000
718.146;10108.155;  -59.997;    0.000
718.721; 9915.173;    1.003;    0.000
719.297; 9884.191;  -31.997;    0.000
719.873; 9681.208;  -40.997;    0.000
720.448; 9767.226;   -2.997;    0.000
721.024; 9728.244;  -47.997;    0.000
721.599; 9671.262;    1.003;    0.000
722.175; 9546.279;   12.003;    0.000
722.750; 9910.297;  -99.997;    0.000
723.325; 9611.315;   19.003;    0.000
723.901; 9755.333;  -69.997;    0.000
724.476; 9469.350;  -10.998;    0.000
725.051; 9414.368;  -21.998;    0.000
725.627; 9437.386;   26.002;    0.000
726.202; 9501.404;  -27.998;    0.000
726.777; 9361.421;    1.002;    0.000
727.352; 9550.439;  -28.998;    0.000
727.927; 9481.457;  -48.998;    0.000
728.502; 9382.475;  -52.998;    0.000
729.077; 9440.492;   -3.998;    0.000
729.652; 9264.510;   -2.998;    0.000
730.227; 9181.528;  -35.998;    0.000
730.802; 9274.546;  -55.998;    0.000
731.377; 9305.563;    4.002;    0.000
731.951; 9237.581;  -29.998;    0.000
732.526; 9382.599;  -36.998;    0.000
733.101; 9190.617;    4.002;    0.000
733.676; 9179.634;  -11.998;    0.000
734.250; 9136.652;  -21.998;    0.000
734.825; 9188.670;  -14.998;    0.000
735.399; 9326.688;  -39.998;    0.000
735.974; 9305.705;  -29.998;    0.000
736.548; 9161.723;  -37.998;    0.000
737.123; 9232.741;  -62.998;    0.000
737.697; 9167.759;   -6.998;    0.000
738.272; 9179.776;   28.002;    0.000
738.846; 9046.794;  -22.998;    0.000
739.420; 9068.812;  -68.998;    0.000
739.994; 9049.830;  -42.998;    0.000
740.569; 9285.847;  -24.998;    0.000
741.143; 9173.865;   -5.998;    0.000
741.717; 9085.883;  -40.998;    0.000
742.291; 9127.901;  -25.998;    0.000
742.865; 9000.918;   -4.998;    0.000
743.439; 8970.936;  -47.998;    0.000
744.013; 9046.954;   37.002;    0.000
744.587; 9110.972;  -45.998;    0.000
745.161; 9039.989;  -60.998;    0.000
745.735; 9118.007;   -3.998;    0.000
746.308; 9120.025;  -17.998;    0.000
746.882; 9067.043;  -78.998;    0.000
747.456; 8942.060;    1.002;    0.000
748.030; 8912.078;  -19.998;    0.000
748.603; 8983.096;  -51.998;    0.000
749.177; 8878.114;  -24.998;    0.000
749.751; 9010.131;  -22.998;    0.000
750.324; 8793.149;  -72.998;    0.000
750.898; 8652.167;  -21.998;    0.000
751.471; 8763.185;   40.002;    0.000
752.044; 8683.202;  -45.998;    0.000
752.618; 8749.220;  -42.998;    0.000
753.191; 8825.238;  -21.998;    0.000
753.764; 8822.255;  -50.998;    0.000
754.338; 8714.273;  -49.998;    0.000
754.911; 8693.291;    1.002;    0.000
755.484; 8585.309;  -38.998;    0.000
756.057; 8650.326;  -52.998;    0.000
756.630; 8681.344;  -48.998;    0.000
757.203; 8647.362;  -18.998;    0.000
757.776; 8591.380;  -16.998;    0.000
758.349; 8496.397;  -62.998;    0.000
758.922; 8547.415;  -59.998;    0.000
759.495; 8352.433;  -81.998;    0.000
760.068; 8466.451;  -62.998;    0.000
760.641; 8327.468;  -45.998;    0.000
761.214; 8428.486;  -18.998;    0.000
761.786; 8327.504;  -53.998;    0.000
762.359; 8304.522;  -10.998;    0.000
762.932; 8027.539;    3.002;    0.000
763.504; 8128.557;  -10.998;    0.000
764.077; 8414.575;  -14.998;    0.000
764.649; 8054.593;  -26.998;    0.000
765.222; 8110.610;  -80.998;    0.000
765.794; 7922.628;   18.002;    0.000
766.367; 8092.646;  -76.998;    0.000
766.939; 7763.664;   -8.998;    0.000
767.511; 7941.681;  -52.998;    0.000
768.084; 7793.699;  -63.998;    0.000
768.656; 7955.717;  -54.998;    0.000
769.228; 7632.735;    6.002;    0.000
769.800; 7527.752; -103.998;    0.000
770.373; 7615.770;  -15.998;    0.000
770.945; 7528.788;  -29.998;    0.000
771.517; 7712.806;  -50.998;    0.000
772.089; 7622.823;    1.002;    0.000
772.661; 7404.841;   -7.998;    0.000
773.233; 7317.859;  -49.998;    0.000
773.805; 7502.877;   -8.998;    0.000
774.376; 7458.894;  -64.998;    0.000
774.948; 7263.912;  -44.998;    0.000
775.520; 7368.930;  -33.998;    0.000
776.092; 7063.948;   27.002;    0.000
776.663; 7201.965;  -39.998;    0.000
777.235; 7201.983;  -41.998;    0.000
777.807; 7026.001;   -9.998;    0.000
778.378; 7035.019;  -12.998;    0.000
778.950; 6978.036;  -13.998;    0.000
779.521; 6832.054;  -47.998;    0.000
780.093; 6597.072;  -18.998;    0.000
780.664; 6768.090;   19.002;    0.000
781.235; 6702.107;  -21.998;    0.000
781.807; 6806.125;    1.002;    0.000
782.378; 6500.143;    4.002;    0.000
782.949; 6733.161;  -22.998;    0.000
783.521; 6512.178;    8.002;    0.000
784.092; 6756.196;  -18.998;    0.000
784.663; 6393.214;   -2.999;    0.000
785.234; 6511.232;  -49.999;    0.000
785.805; 6367.249;   -0.999;    0.000
786.376; 6343.267;  -25.999;    0.000
786.947; 6358.285;  -16.999;    0.000
787.518; 6283.303;    5.001;    0.000
788.089; 6270.320;  -42.999;    0.000
788.660; 6036.338;   -3.999;    0.000
789.230; 6156.356;  -36.999;    0.000
789.801; 6256.374;    8.001;    0.000
790.372; 6144.391;  -26.999;    0.000
790.943; 5940.409;   11.001;    0.000
791.513; 6102.427;  -91.999;    0.000
792.084; 5911.445;   54.001;    0.000
792.654; 5982.462;  -17.999;    0.000
793.225; 5735.480;   13.001;    0.000
793.795; 5940.498;  -65.999;    0.000
794.366; 5788.515;  -35.999;    0.000
794.936; 5790.533;    7.001;    0.000
795.507; 5698.551;  -48.999;    0.000
796.077; 5888.569;    5.001;    0.000
796.647; 5813.586;  -10.999;    0.000
797.217; 5668.604;  -35.999;    0.000
797.788; 5610.622;  -21.999;    0.000
798.358; 5725.640;  -29.999;    0.000
798.928; 5605.657;  -68.999;    0.000
799.498; 5577.675;  -38.999;    0.000
800.068; 5567.693;  -21.999;    0.000
800.638; 5557.711;  -20.999;    0.000
801.208; 5719.728;  -32.999;    0.000
801.778; 5611.746;   -1.999;    0.000
802.348; 5527.764;  -46.999;    0.000
802.917; 5642.782;  -50.999;    0.000
803.487; 5437.799;  -19.999;    0.000
804.057; 5420.817;  -39.999;    0.000
804.627; 5506.835;  -36.999;    0.000
805.196; 5464.853;   -6.999;    0.000
805.766; 5472.870;  -26.999;    0.000
806.335; 5435.888;  -35.999;    0.000
806.905; 5343.906;   -5.999;    0.000
807.475; 5373.924;  -41.999;    0.000
808.044; 5295.941;   -6.999;    0.000
808.613; 5346.959;  -50.999;    0.000
809.183; 5334.977;  -21.999;    0.000
809.752; 5244.995;  -56.999;    0.000
810.321; 5260.012;  -40.999;    0.000
810.891; 5177.030;  -76.999;    0.000
811.460; 5085.048;  -20.999;    0.000
812.029; 5170.066;   -4.999;    0.000
812.598; 5218.083;  -19.999;    0.000
813.167; 4841.101;  -39.999;    0.000
813.736; 5038.119;   -5.999;    0.000
814.305; 5057.137; -111.999;    0.000
814.874; 4982.154;  -13.999;    0.000
815.443; 5002.172;   -1.999;    0.000
816.012; 4970.190;  -29.999;    0.000
816.581; 4872.208;  -30.999;    0.000
817.150; 4758.225;  -45.999;    0.000
817.718; 5022.243;  -50.999;    0.000
818.287; 4774.261;  -74.999;    0.000
818.856; 4860.279;  -24.999;    0.000
819.424; 4907.296;  -32.999;    0.000
819.993; 4924.314;  -32.999;    0.000
820.562; 4528.332;  -46.999;    0.000
821.130; 4634.350;   -0.999;    0.000
821.698; 4713.367;  -35.999;    0.000
822.267; 4760.385;  -37.999;    0.000
822.835; 4685.403;  -41.999;    0.000
823.404; 4557.421;  -58.999;    0.000
823.972; 4630.438;  -43.999;    0.000
824.540; 4763.456;  -31.999;    0.000
825.108; 4441.474;   31.001;    0.000
825.677; 4695.492;    3.001;    0.000
826.245; 4408.509;   17.001;    0.000
826.813; 4498.527;  -27.999;    0.000
827.381; 4485.545;  -13.999;    0.000
827.949; 4537.563;  -35.999;    0.000
828.517; 4669.580;  -25.999;    0.000
829.085; 4595.598;  -44.999;    0.000
829.653; 4588.616;  -23.999;    0.000
830.220; 4429.634;  -32.999;    0.000
830.788; 4426.651;  -35.999;    0.000
831.356; 4523.669;  -66.999;    0.000
831.924; 4381.687;   38.001;    0.000
832.491; 4491.705;   10.001;    0.000
833.059; 4432.722;    6.001;    0.000
833.627; 4454.740;  -83.999;    0.000
834.194; 4369.758;  -72.999;    0.000
834.762; 4461.775;   -4.999;    0.000
835.329; 4235.793;  -34.999;    0.000
835.897; 4391.811;    1.001;    0.000
836.464; 4402.829;  -29.999;    0.000
837.031; 4381.846;   -5.999;    0.000
837.599; 4210.864;  -61.999;    0.000
838.166; 4308.882;   23.001;    0.000
838.733; 4261.900;  -54.999;    0.000
839.300; 4220.917;  -64.999;    0.000
839.867; 4300.935;  -34.999;    0.000
840.434; 4260.953;  -30.999;    0.000
841.001; 4203.971;  -57.999;    0.000
841.568; 4125.988;  -30.999;    0.000
842.135; 4228.006;  -51.999;    0.000
842.702; 4320.024;   29.001;    0.000
843.269; 4224.042;  -56.999;    0.000
843.836; 4175.059;  -10.999;    0.000
844.403; 4271.077;   33.000;    0.000
844.970; 4273.095;  -26.000;    0.000
845.536; 4214.113;  -45.000;    0.000
846.103; 4201.130;  -50.000;    0.000
846.670; 4265.148;  -39.000;    0.000
847.236; 4145.166;  -39.000;    0.000
847.803; 4050.184;  -39.000;    0.000
848.369; 4170.201;    2.000;    0.000
848.936; 4066.219;  -63.000;    0.000
849.502; 3982.237;    3.000;    0.000
850.069; 4180.255;  -13.000;    0.000
850.635; 4088.272;  -55.000;    0.000
851.201; 4123.290;  -17.000;    0.000
851.767; 4032.308;  -15.000;    0.000
852.334; 4021.326;  -18.000;    0.000
852.900; 4099.343;   20.000;    0.000
853.466; 4128.361;  -67.000;    0.000
854.032; 3969.379;  -48.000;    0.000
854.598; 3904.397;  -55.000;    0.000
855.164; 3872.414;  -25.000;    0.000
855.730; 3929.432;   -6.000;    0.000
856.296; 3959.450;   13.000;    0.000
856.862; 3972.468;   20.000;    0.000
857.428; 3917.485;    1.000;    0.000
857.993; 3900.503;  -34.000;    0.000
858.559; 3820.521;   11.000;    0.000
859.125; 3857.539;  -33.000;    0.000
859.690; 3947.556;  -50.000;    0.000
860.256; 3814.574;   -5.000;    0.000
860.822; 3965.592;  -69.000;    0.000
861.387; 3958.610;  -24.000;    0.000
861.953; 3772.627;  -62.000;    0.000
862.518; 3845.645;  -67.000;    0.000
863.083; 3850.663;  -64.000;    0.000
863.649; 3770.681;  -20.000;    0.000
864.214; 3684.698;  -34.000;    0.000
864.779; 3770.716;  -77.000;    0.000
865.345; 3846.734;  -13.000;    0.000
865.910; 3743.752;   -8.000;    0.000
866.475; 3738.769;  -14.000;    0.000
867.040; 3706.787;  -55.000;    0.000
867.605; 3720.805;  -46.000;    0.000
868.170; 3741.823;   10.000;    0.000
868.735; 3831.840;  -40.000;    0.000
869.300; 3703.858;   -9.000;    0.000
869.865; 3618.876;   27.000;    0.000
870.430; 3582.894;  -25.000;    0.000
870.995; 3660.911;   43.000;    0.000
871.559; 3593.929;  -18.000;    0.000
872.124; 3467.947;  -12.000;    0.000
872.689; 3373.965;  -84.000;    0.000
873.253; 3654.982;  -20.000;    0.000
873.818; 3381.000;  -38.000;    0.000
874.382; 3439.000;  -47.000;    0.000
874.947; 3498.000;  -58.000;    0.000
875.511; 3433.000;  -32.000;    0.000
876.076; 3286.000;  -58.000;    0.000
876.640; 3372.000;  -33.000;    0.000
877.205; 3488.000;  -33.000;    0.000
877.769; 3233.000;  -37.000;    0.000
878.333; 3381.000;  -74.000;    0.000
878.897; 3357.000;  -39.000;    0.000
879.461; 3220.000;  -34.000;    0.000
880.026; 3326.000;   26.000;    0.000
880.590; 3265.000;  -24.000;    0.000
881.154; 3370.000;  -39.000;    0.000
881.718; 3265.000;   -7.000;    0.000
882.282; 3118.000;  -19.000;    0.000
882.846; 3121.000;  -17.000;    0.000
883.409; 3294.000;  -44.000;    0.000
883.973; 3077.000;   25.000;    0.000
884.537; 3074.000;  -29.000;    0.000
885.101; 3075.000;  -33.000;    0.000
885.664; 2930.000;  -30.000;    0.000
886.228; 3055.000;  -22.000;    0.000
886.792; 3010.000;  -23.000;    0.000
887.355; 2973.000;    6.000;    0.000
887.919; 3113.000;   -6.000;    0.000
888.482; 2773.000;  -25.000;    0.000
889.046; 2969.000;  -15.000;    0.000
889.609; 2785.000;  -37.000;    0.000
890.172; 2748.000;   -3.000;    0.000
890.736; 2791.000;  -11.000;    0.000
891.299; 2850.000;  -54.000;    0.000
891.862; 2733.000;  -27.000;    0.000
892.425; 2694.000;  -84.000;    0.000
892.988; 2736.000;  -43.000;    0.000
893.552; 2825.000;  -33.000;    0.000
894.115; 2801.000;  -17.000;    0.000
894.678; 2634.000;    9.000;    0.000
895.241; 2705.000;   18.000;    0.000
895.803; 2726.000;  -11.000;    0.000
896.366; 2697.000;  -20.000;    0.000
896.929; 2702.000;  -40.000;    0.000
897.492; 2755.000;  -85.000;    0.000
898.055; 2782.000;  -33.000;    0.000
898.617; 2763.000;  -35.000;    0.000
899.180; 2732.000;  -50.000;    0.000
899.743; 2825.000;   20.000;    0.000
900.305; 2819.000;   36.000;    0.000
900.868; 2933.000;   -6.000;    0.000
901.430; 2821.000;  -13.000;    0.000
901.993; 2872.000;   17.000;    0.000
902.555; 2916.000;  -22.000;    0.000
903.117; 2858.000;  -40.000;    0.000
903.680; 2910.000;  -35.000;    0.000
904.242; 2959.000;  -20.000;    0.000
904.804; 2828.000;    9.000;    0.000
905.366; 2984.000;   11.000;    0.000
905.929; 2869.000;   18.000;    0.000
906.491; 2977.000;  -61.000;    0.000
907.053; 2913.000;  -28.000;    0.000
907.615; 2876.000;  -31.000;    0.000
908.177; 2782.000;  -38.000;    0.000
908.739; 2697.000;  -39.000;    0.000
909.300; 2894.000;  -18.000;    0.000
909.862; 2747.000;  -34.000;    0.000
910.424; 2766.000;  -49.000;    0.000
910.986; 2727.000;  -35.000;    0.000
911.547; 2770.000;  -39.000;    0.000
912.109; 2645.000;   19.000;    0.000
912.671; 2729.000;  -55.000;    0.000
913.232; 2851.000;   -8.000;    0.000
913.794; 2645.000;  -69.000;    0.000
914.355; 2459.000;  -23.000;    0.000
914.917; 2572.000;  -28.000;    0.000
915.478; 2531.000;  -29.000;    0.000
916.039; 2561.000;   -4.000;    0.000
916.601; 2509.000;  -50.000;    0.000
917.162; 2445.000;  -35.000;    0.000
917.723; 2552.000;   -2.000;    0.000
918.284; 2379.000;  -50.000;    0.000
918.845; 2431.000;   -2.000;    0.000
919.407; 2398.000;  -33.000;    0.000
919.968; 2405.000;  -29.000;    0.000
920.529; 2358.000;  -39.000;    0.000
921.090; 2276.000;  -23.000;    0.000
921.650; 2321.000;  -41.000;    0.000
922.211; 2191.000;  -44.000;    0.000
922.772; 2290.000;   38.000;    0.000
923.333; 2287.000;  -65.000;    0.000
923.894; 2388.000;  -81.000;    0.000
924.454; 2209.000;    4.000;    0.000
925.015; 2035.000;  -16.000;    0.000
925.576; 2119.000;  -63.000;    0.000
926.136; 2109.000;  -60.000;    0.000
926.697; 2134.000;  -44.000;    0.000
927.257; 2106.000;  -60.000;    0.000
927.818; 1998.000;  -44.000;    0.000
928.378; 2131.000;  -51.000;    0.000
928.938; 2103.000;   -2.000;    0.000
929.499; 2087.000;  -14.000;    0.000
930.059; 1969.000;  -50.000;    0.000
930.619; 2003.000;  -36.000;    0.000
931.179; 2022.000;    7.000;    0.000
931.739; 1965.000;  -15.000;    0.000
932.299; 2018.000;    5.000;    0.000
932.859; 1932.000;  -17.000;    0.000
933.419; 1972.000;   -2.000;    0.000
933.979; 1913.000;  -40.000;    0.000
934.539; 1927.000;  -15.000;    0.000
935.099; 1917.000;  -17.000;    0.000
935.659; 1838.000;  -20.000;    0.000
936.219; 1790.000;  -77.000;    0.000
936.778; 1861.000;  -70.000;    0.000
937.338; 1789.000;  -29.000;    0.000
937.898; 1761.000;  -58.000;    0.000
938.457; 1857.000;  -48.000;    0.000
939.017; 1817.000;  -40.000;    0.000
939.576; 1772.000;  -43.000;    0.000
940.136; 1747.000;    4.000;    0.000
940.695; 1786.000;    5.000;    0.000
941.254; 1591.000;  -18.000;    0.000
941.814; 1682.000;  -58.000;    0.000
942.373; 1722.000;  -37.000;    0.000
942.932; 1645.000;  -50.000;    0.000
943.491; 1769.000;   -3.000;    0.000
944.051; 1653.000;  -25.000;    0.000
944.610; 1597.000;   13.000;    0.000
945.169; 1557.000;  -72.000;    0.000
945.728; 1525.000;   15.000;    0.000
946.287; 1652.000;  -47.000;    0.000
946.846; 1525.000;  -50.000;    0.000
947.404; 1546.000;  -75.000;    0.000
947.963; 1495.000;  -88.000;    0.000
948.522; 1592.000;  -22.000;    0.000
949.081; 1512.000; -107.000;    0.000
949.639; 1472.000;    7.000;    0.000
950.198; 1377.000;  -11.000;    0.000
950.757; 1517.000;  -34.000;    0.000
951.315; 1448.000;   -5.000;    0.000
951.874; 1392.000;  -49.000;    0.000
952.432; 1482.000;  -16.000;    0.000
952.991; 1366.000;  -27.000;    0.000
953.549; 1353.000;   51.000;    0.000
954.107; 1472.000;   18.000;    0.000
954.666; 1470.000;  -18.000;    0.000
955.224; 1375.000;  -52.000;    0.000
955.782; 1349.000;  -53.000;    0.000
956.340; 1316.000;  -72.000;    0.000
956.898; 1408.000;  -29.000;    0.000
957.456; 1393.000;  -19.000;    0.000
958.014; 1360.000;  -16.000;    0.000
958.572; 1376.000;  -68.000;    0.000
959.130; 1404.000;  -22.000;    0.000
959.688; 1334.000;  -54.000;    0.000
960.246; 1261.000;   -7.000;    0.000
960.804; 1212.000;  -56.000;    0.000
961.362; 1332.000;   -4.000;    0.000
961.919; 1302.000;  -57.000;    0.000
962.477; 1371.000;  -65.000;    0.000
963.035; 1338.000;  -13.000;    0.000
963.592; 1310.000;  -28.000;    0.000
964.150; 1280.000;   -2.000;    0.000
964.707; 1319.000;  -58.000;    0.000
965.265; 1305.000;  -58.000;    0.000
965.822; 1351.000;  -40.000;    0.000
966.379; 1337.000;  -42.000;    0.000
966.937; 1262.000;  -65.000;    0.000
967.494; 1279.000;  -53.000;    0.000
968.051; 1279.000;  -55.000;    0.000
968.608; 1241.000;  -26.000;    0.000
969.165; 1163.000;  -25.000;    0.000
969.722; 1121.000;  -86.000;    0.000
970.279; 1134.000;    4.000;    0.000
970.836; 1239.000;  -85.000;    0.000
971.393; 1221.000;   15.000;    0.000
971.950; 1157.000;    2.000;    0.000
972.507; 1163.000;  -55.000;    0.000
973.064; 1155.000;  -22.000;    0.000
973.621; 1212.000;   -6.000;    0.000
974.177; 1146.000;  -34.000;    0.000
974.734; 1145.000;  -29.000;    0.000
975.291; 1181.000;    3.000;    0.000
975.847; 1046.000;  -29.000;    0.000
976.404; 1058.000;  -31.000;    0.000
976.960; 1079.000;  -11.000;    0.000
977.517; 1084.000;  -38.000;    0.000
978.073; 1021.000;   -2.000;    0.000
978.629; 1143.000;   12.000;    0.000
979.186; 1007.000;  -39.000;    0.000
979.742; 1069.000;  -49.000;    0.000
980.298; 1022.000;  -97.000;    0.000
980.854; 1048.000;  -63.000;    0.000
981.411; 1008.000;    8.000;    0.000
981.967; 1031.000;  -57.000;    0.000
982.523;  935.000;  -38.000;    0.000
983.079; 1005.000;  -60.000;    0.000
983.635;  936.000;  -19.000;    0.000
984.190;  984.000;  -10.000;    0.000
984.746;  992.000;  -26.000;    0.000
985.302; 1003.000;  -67.000;    0.000
985.858;  869.000;  -20.000;    0.000
986.414;  964.000;  -49.000;    0.000
986.969;  894.000;  -35.000;    0.000
987.525;  910.000;  -35.000;    0.000
988.080;  886.000;  -27.000;    0.000
988.636;  990.000;  -70.000;    0.000
989.192;  902.000;  -90.000;    0.000
989.747;  817.000;  -31.000;    0.000
990.302;  809.000;   -5.000;    0.000
990.858;  893.000;  -43.000;    0.000
991.413;  805.000;  -65.000;    0.000
991.968;  865.000;  -83.000;    0.000
992.523;  821.000;   15.000;    0.000
993.079;  842.000;  -40.000;    0.000
993.634;  805.000;   -5.000;    0.000
994.189;  830.000;  -64.000;    0.000
994.744;  881.000;  -61.000;    0.000
995.299;  714.000;  -60.000;    0.000
995.854;  719.000;  -34.000;    0.000
996.409;  746.000;  -44.000;    0.000
996.963;  789.000;  -42.000;    0.000
997.518;  744.000;  -16.000;    0.000
998.073;  767.000;  -34.000;    0.000
998.628;  715.000;  -35.000;    0.000
999.182;  701.000;  -44.000;    0.000
999.737;  694.000;  -51.000;    0.000
1000.292;  672.000;  -26.000;    0.000
1000.846;  687.000;  -29.000;    0.000
1001.401;  642.000;  -13.000;    0.000
1001.955;  676.000;    0.000;    0.000
1002.509;  673.000;  -51.000;    0.000
1003.064;  608.000;  -37.000;    0.000
1003.618;  600.000;  -42.000;    0.000
1004.172;  557.000;  -50.000;    0.000
1004.726;  628.000;  -62.000;    0.000
1005.281;  706.000;   -1.000;    0.000
1005.835;  628.000;  -46.000;    0.000
1006.389;  670.000;  -49.000;    0.000
1006.943;  673.000;  -53.000;    0.000
1007.497;  650.000;    3.000;    0.000
1008.051;  655.000;   -6.000;    0.000
1008.605;  662.000;  -57.000;    0.000
1009.158;  585.000;  -22.000;    0.000
1009.712;  622.000;   22.000;    0.000
1010.266;  695.000;  -70.000;    0.000
1010.820;  663.000;  -57.000;    0.000
1011.373;  655.000;  -32.000;    0.000
1011.927;  712.000;   -9.000;    0.000
1012.480;  715.000;  -37.000;    0.000
1013.034;  683.000;  -25.000;    0.000
1013.587;  698.000;   -2.000;    0.000
1014.141;  639.000;   -2.000;    0.000
1014.694;  574.000;  -66.000;    0.000
1015.248;  617.000;  -32.000;    0.000
1015.801;  642.000;    2.000;    0.000
1016.354;  617.000;  -57.000;    0.000
1016.907;  674.000;  -55.000;    0.000
1017.460;  593.000;  -35.000;    0.000
1018.013;  521.000;  -28.000;    0.000
1018.567;  617.000;   -3.000;    0.000
1019.120;  489.000;   -4.000;    0.000
1019.672;  673.000;  -27.000;    0.000
1020.225;  607.000;  -15.000;    0.000
1020.778;  514.000;  -80.000;    0.000
1021.331;  589.000;   -3.000;    0.000
1021.884;  544.000;   28.000;    0.000
1022.437;  519.000;  -55.000;    0.000
1022.989;  559.000;  -23.000;    0.000
1023.542;  479.000;  -10.000;    0.000
1024.094;  502.000;  -11.000;    0.000
1024.647;  480.000;  -56.000;    0.000
1025.199;  533.000;  -37.000;    0.000
1025.752;  424.000;    9.000;    0.000
1026.304;  453.000;  -31.000;    0.000
1026.857;  481.000;   33.000;    0.000
1027.409;  432.000;  -14.000;    0.000
1027.961;  425.000;  -44.000;    0.000
1028.513;  444.000;   17.000;    0.000
1029.066;  431.000;  -91.000;    0.000
1029.618;  440.000;  -57.000;    0.000
1030.170;  396.000;  -41.000;    0.000
1030.722;  480.000; -124.000;    0.000
1031.274;  452.000;  -27.000;    0.000
1031.826;  381.000;  -19.000;    0.000
1032.378;  342.000;  -28.000;    0.000
1032.929;  494.000;  -28.000;    0.000
1033.481;  364.000;  -44.000;    0.000
1034.033;  374.000;  -55.000;    0.000
1034.585;  407.000;  -15.000;    0.000
1035.136;  387.000;  -80.000;    0.000
1035.688;  313.000;  -62.000;    0.000
1036.239;  340.000;  -64.000;    0.000
1036.791;  363.000;  -43.000;    0.000
1037.342;  287.000;   -7.000;    0.000
1037.894;  328.000;    0.000;    0.000
1038.445;  306.000;  -43.000;    0.000
1038.996;  288.000;  -22.000;    0.000
1039.548;  307.000;  -37.000;    0.000
1040.099;  264.000;  -23.000;    0.000
1040.650;  356.000;  -40.000;    0.000
1041.201;  261.000;  -61.000;    0.000
1041.752;  280.000;   19.000;    0.000
1042.303;  310.000; -118.000;    0.000
1042.854;  246.000;  -99.000;    0.000
1043.405;  318.000;  -14.000;    0.000
1043.956;  258.000;  -30.000;    0.000
1044.507;  200.000;  -48.000;    0.000
1045.058;  293.000;  -31.000;    0.000
1045.609;  249.000;  -31.000;    0.000
1046.159;  335.000;  -55.000;    0.000
1046.710;  255.000;  -83.000;    0.000
1047.261;  252.000;  -76.000;    0.000
1047.811;  281.000;  -33.000;    0.000
1048.362;  234.000;  -47.000;    0.000
1048.912;  220.000;   49.000;    0.000
1049.463;  207.000;   -5.000;    0.000
1050.013;  254.000;  -40.000;    0.000
1050.563;  268.000;  -76.000;    0.000
1051.114;  203.000;  -29.000;    0.000
1051.664;  212.000;  -21.000;    0.000
1052.214;  184.000;  -48.000;    0.000
1052.764;  167.000;  -46.000;    0.000
1053.314;  258.000;  -56.000;    0.000
1053.864;  251.000;   -6.000;    0.000
1054.414;  212.000;  -54.000;    0.000
1054.964;  118.000;  -70.000;    0.000
1055.514;  176.000;   21.000;    0.000
1056.064;  239.000;  -16.000;    0.000
1056.614;  148.000;  -31.000;    0.000
1057.163;  208.000;  -61.000;    0.000
1057.713;  213.000;  -29.000;    0.000
1058.263;  176.000;  -83.000;    0.000
1058.812;  150.000;  -32.000;    0.000
1059.362;  156.000;  -67.000;    0.000
1059.912;  158.000;  -30.000;    0.000
1060.461;  200.000;    8.000;    0.000
1061.010;  158.000;  -35.000;    0.000
1061.560;  167.000;  -64.000;    0.000
1062.109;  110.000;   -3.000;    0.000
1062.658;  135.000;  -51.000;    0.000
1063.208;  124.000;  -84.000;    0.000
1063.757;  145.000;  -89.000;    0.000
1064.306;  162.000;  -12.000;    0.000
1064.855;  141.000;  -39.000;    0.000
1065.404;  120.000;  -21.000;    0.000
1065.953;  120.000;  -14.000;    0.000
1066.502;   79.000;  -20.000;    0.000
1067.051;  135.000;  -30.000;    0.000
1067.600;  175.000;  -37.000;    0.000
1068.149;  120.000;  -46.000;    0.000
1068.698;  100.000;  -45.000;    0.000
1069.246;   79.000;  -50.000;    0.000
1069.795;  110.000;  -65.000;    0.000
1070.344;  139.000;  -48.000;    0.000
1070.892;  120.000;  -61.000;    0.000
1071.441;  112.000;  -34.000;    0.000
1071.989;  116.000;  -33.000;    0.000
1072.538;   89.000;  -36.000;    0.000
1073.086;  116.000;  -12.000;    0.000
1073.634;   66.000;  -38.000;    0.000
1074.183;  140.000;  -43.000;    0.000
1074.731;  142.000;  -92.000;    0.000
1075.279;   63.000;  -52.000;    0.000
1075.827;  116.000;  -78.000;    0.000
1076.375;  121.000;  -27.000;    0.000
1076.923;  130.000;    5.000;    0.000
1077.471;  117.000;  -52.000;    0.000
1078.019;  101.000;  -58.000;    0.000
1078.567;   58.000;  -47.000;    0.000
1079.115;  140.000;  -71.000;    0.000
1079.663;   65.000;  -59.000;    0.000
1080.210;   46.000;  -34.000;    0.000
1080.758;   79.000;  -27.000;    0.000
1081.306;   77.000;  -79.000;    0.000
1081.853;   84.000;  -55.000;    0.000
1082.401;  116.000;  -85.000;    0.000
1082.949;   83.000;  -67.000;    0.000
1083.496;   85.000;  -39.000;    0.000
1084.043;   55.000;  -25.000;    0.000
1084.591;   82.000;  -53.000;    0.000
1085.138;   34.000;  -18.000;    0.000
1085.685;  153.000;  -79.000;    0.000
1086.233;   93.000;  -39.000;    0.000
1086.780;   41.000;  -48.000;    0.000
1087.327;   55.000;  -34.000;    0.000
1087.874;   79.000;  -33.000;    0.000
1088.421;   65.000;  -11.000;    0.000
1088.968;   56.000;  -59.000;    0.000
1089.515;   67.000;  -10.000;    0.000
1090.062;   57.000;   -9.000;    0.000
1090.609;  -34.000;  -24.000;    0.000
1091.156;  104.000;  -55.000;    0.000
1091.702;   48.000;  -57.000;    0.000
1092.249;  115.000;  -45.000;    0.000
1092.796;   45.000;  -48.000;    0.000
1093.342;   73.000;  -24.000;    0.000
1093.889;   92.000;  -37.000;    0.000
1094.435;   74.000;  -26.000;    0.000
1094.982;   54.000;  -60.000;    0.000
1095.528;  106.000;  -68.000;    0.000
1096.075;   17.000;  -44.000;    0.000
1096.621;  132.000;  -94.000;    0.000
1097.167;   55.000;  -37.000;    0.000
1097.713;  127.000;  -66.000;    0.000
1098.259;   37.000;  -42.000;    0.000
1098.806;   60.000;  -46.000;    0.000
1099.352;   90.000;    3.000;    0.000
1099.898;   71.000;  -62.000;    0.000
1100.444;   56.000;  -59.000;    0.000

