X-ray (ID 01) / Crystal angle θ_c	X-ray (ID 01) / Impulse Imp
θ_c/°	Imp/# / s

3.0	1532
3.1	1381
3.2	1102
3.3	920
3.4	759
3.5	672
3.6	561
3.7	495
3.8	427
3.9	352
4.0	301
4.1	228
4.2	202
4.3	171
4.4	130
4.5	118
4.6	104
4.7	108
4.8	99
4.9	95
5.0	97
5.1	86
5.2	103
5.3	116
5.4	137
5.5	195
5.6	224
5.7	248
5.8	282
5.9	333
6.0	376
6.1	382
6.2	394
6.3	459
6.4	426
6.5	504
6.6	490
6.7	548
6.8	543
6.9	573
7.0	566
7.1	587
7.2	569
7.3	599
7.4	615
7.5	626
7.6	657
7.7	659
7.8	645
7.9	672
8.0	670
8.1	676
8.2	647
8.3	738
8.4	699
8.5	715
8.6	669
8.7	741
8.8	843
8.9	1007
9.0	1269
9.1	1924
9.2	1886
9.3	1497
9.4	1010
9.5	907
9.6	868
9.7	924
9.8	992
9.9	1504
10.0	1933
10.1	2588
10.2	4777
10.3	6481
10.4	4968
10.5	2274
10.6	1385
10.7	1012
10.8	946
10.9	958
11.0	937
11.1	952
11.2	953
11.3	948
11.4	950
11.5	998
11.6	969
11.7	1013
11.8	995
11.9	999
12.0	963
12.1	1041
12.2	1014
12.3	1007
12.4	991
12.5	987
12.6	1041
12.7	1038
12.8	1044
12.9	1038
13.0	1039
13.1	1018
13.2	1089
13.3	977
13.4	965
13.5	920
13.6	941
13.7	905
13.8	920
13.9	897
14.0	919
14.1	914
14.2	941
14.3	895
14.4	894
14.5	890
14.6	904
14.7	914
14.8	872
14.9	881
15.0	881
15.1	895
15.2	879
15.3	886
15.4	893
15.5	866
15.6	859
15.7	883
15.8	842
15.9	853
16.0	823
16.1	861
16.2	836
16.3	801
16.4	793
16.5	762
16.6	810
16.7	786
16.8	776
16.9	752
17.0	748
17.1	720
17.2	743
17.3	753
17.4	714
17.5	705
17.6	687
17.7	693
17.8	676
17.9	689
18.0	670
18.1	693
18.2	665
18.3	735
18.4	776
18.5	743
18.6	662
18.7	649
18.8	622
18.9	684
19.0	655
19.1	628
19.2	622
19.3	605
19.4	588
19.5	575
19.6	567
19.7	561
19.8	561
19.9	568
20.0	554
20.1	563
20.2	573
20.3	594
20.4	583
20.5	645
20.6	843
20.7	1367
20.8	1467
20.9	1103
21.0	689
21.1	485
21.2	433
21.3	411
21.4	407
21.5	396
21.6	401
21.7	414
21.8	395
21.9	368
22.0	371
22.1	353
22.2	345
22.3	339
22.4	372
22.5	411
22.6	445
22.7	359
22.8	327
22.9	319
23.0	289
23.1	303
23.2	286
23.3	281
23.4	265
23.5	281
23.6	272
23.7	269
23.8	265
23.9	246
24.0	216
24.1	245
24.2	242
24.3	226
24.4	230
24.5	232
24.6	215
24.7	222
24.8	199
24.9	209
25.0	213
25.1	194
25.2	207
25.3	192
25.4	188
25.5	194
25.6	184
25.7	177
25.8	178
25.9	186
26.0	168
26.1	170
26.2	153
26.3	152
26.4	158
26.5	153
26.6	146
26.7	153
26.8	145
26.9	142
27.0	145
27.1	147
27.2	137
27.3	134
27.4	134
27.5	125
27.6	133
27.7	133
27.8	116
27.9	133
28.0	119
28.1	127
28.2	137
28.3	129
28.4	108
28.5	108
28.6	121
28.7	108
28.8	111
28.9	92
29.0	95
29.1	96
29.2	93
29.3	86
29.4	99
29.5	85
29.6	93
29.7	87
29.8	83
29.9	89
30.0	88
30.1	93
30.2	84
30.3	89
30.4	63
30.5	79
30.6	79
30.7	90
30.8	82
30.9	74
31.0	69
31.1	76
31.2	83
31.3	80
31.4	79
31.5	90
31.6	87
31.7	75
31.8	95
31.9	177
32.0	219
32.1	166
32.2	141
32.3	110
32.4	78
32.5	72
32.6	75
32.7	75
32.8	61
32.9	74
33.0	64
33.1	56
33.2	66
33.3	53
33.4	68
33.5	63
33.6	68
33.7	64
33.8	62
33.9	62
34.0	60
34.1	61
34.2	72
34.3	61
34.4	66
34.5	58
34.6	56
34.7	56
34.8	58
34.9	56
35.0	52
35.1	54
35.2	54
35.3	60
35.4	60
35.5	56
35.6	51
35.7	50
35.8	52
35.9	46
36.0	54
36.1	50
36.2	45
36.3	45
36.4	50
36.5	50
36.6	46
36.7	36
36.8	49
36.9	47
37.0	57
37.1	51
37.2	58
37.3	46
37.4	49
37.5	45
37.6	47
37.7	49
37.8	43
37.9	50
38.0	45
38.1	49
38.2	39
38.3	37
38.4	46
38.5	39
38.6	38
38.7	39
38.8	41
38.9	45
39.0	46
39.1	42
39.2	49
39.3	34
39.4	40
39.5	45
39.6	42
39.7	48
39.8	50
39.9	48
40.0	50
40.1	45
40.2	37
40.3	45
40.4	46
40.5	49
40.6	46
40.7	47
40.8	34
40.9	41
41.0	46
41.1	59
41.2	37
41.3	45
41.4	43
41.5	36
41.6	53
41.7	42
41.8	38
41.9	37
42.0	40
42.1	44
42.2	36
42.3	33
42.4	45
42.5	33
42.6	44
42.7	35
42.8	38
42.9	49
43.0	37
43.1	34
43.2	34
43.3	43
43.4	36
43.5	41
43.6	38
43.7	43
43.8	47
43.9	35
44.0	42
44.1	37
44.2	38
44.3	35
44.4	38
44.5	40
44.6	39
44.7	36
44.8	61
44.9	80
45.0	52
45.1	50
45.2	49
45.3	64
45.4	39
45.5	37
45.6	34
45.7	33
45.8	34
45.9	30
46.0	35
46.1	33
46.2	34
46.3	33
46.4	35
46.5	37
46.6	40
46.7	33
46.8	30
46.9	29
47.0	27
47.1	26
47.2	26
47.3	30
47.4	28
47.5	37
47.6	27
47.7	33
47.8	30
47.9	30
48.0	30
48.1	37
48.2	28
48.3	33
48.4	27
48.5	27
48.6	31
48.7	36
48.8	33
48.9	40
49.0	34
49.1	30
49.2	31
49.3	29
49.4	27
49.5	31
49.6	32
49.7	32
49.8	32
49.9	30
50.0	50
50.1	46
50.2	34
50.3	37
50.4	31
50.5	27
50.6	29
50.7	33
50.8	33
50.9	24
51.0	29
51.1	34
51.2	27
51.3	34
51.4	29
51.5	27
51.6	28
51.7	28
51.8	29
51.9	32
52.0	25
52.1	28
52.2	26
52.3	27
52.4	25
52.5	23
52.6	31
52.7	25
52.8	28
52.9	23
53.0	28
53.1	26
53.2	28
53.3	30
53.4	29
53.5	26
53.6	32
53.7	26
53.8	27
53.9	22
54.0	28
54.1	28
54.2	25
54.3	30
54.4	27
54.5	25
54.6	27
54.7	29
54.8	20
54.9	24
55.0	24
55.1	29
55.2	28
55.3	30
55.4	26
55.5	30
55.6	33
55.7	25
55.8	28
55.9	31
56.0	28
56.1	20
56.2	21
56.3	31
56.4	25
56.5	24
56.6	24
56.7	28
56.8	22
56.9	28
57.0	31
57.1	30
57.2	32
57.3	28
57.4	25
57.5	28
57.6	27
57.7	31
57.8	29
57.9	24
58.0	23
58.1	25
58.2	29
58.3	26
58.4	24
58.5	25
58.6	23
58.7	22
58.8	26
58.9	24
59.0	17
59.1	23
59.2	24
59.3	21
59.4	25
59.5	24
59.6	21
59.7	29
59.8	24
59.9	24
60.0	18
60.1	30
60.2	25
60.3	25
60.4	25
60.5	21
60.6	25
60.7	27
60.8	21
60.9	22
61.0	27
61.1	31
61.2	29
61.3	30
61.4	25
61.5	22
61.6	40
61.7	32
61.8	31
61.9	35
62.0	30
62.1	26
62.2	28
62.3	28
62.4	28
62.5	36
62.6	29
62.7	27
62.8	18
62.9	24
63.0	30
63.1	33
63.2	23
63.3	32
63.4	25
63.5	29
63.6	22
63.7	24
63.8	24
63.9	31
64.0	27
64.1	27
64.2	28
64.3	23
64.4	27
64.5	18
64.6	25
64.7	26
64.8	22
