
Integration time [ms]:  60.000
Averaging Nr. [scans]: 20
Smoothing Nr. [pixels]: 0
Data measured with spectrometer [name]: 1701237U1
Wave   ;Sample   ;Dark     ;Reference;Scope
[nm]   ;[counts] ;[counts] ;[counts] 

 173.88;   -3.750;  -37.000;    0.000
 174.48;   -1.950;    0.000;    0.000
 175.09;   -1.800;   31.000;    0.000
 175.69;    5.350;   19.000;    0.000
 176.30;   -0.250;  -11.000;    0.000
 176.90;    3.350;  -32.000;    0.000
 177.51;   -3.900;   35.000;    0.000
 178.11;    3.550;  -38.000;    0.000
 178.72;   -9.600;   11.000;    0.000
 179.32;   -8.850;   29.000;    0.000
 179.93;   -2.200;   -9.000;    0.000
 180.54;   -2.300;   18.000;    0.000
 181.14;    0.800;  -26.000;    0.000
 181.75;    2.050;   40.000;    0.000
 182.35;   -6.950;   58.000;    0.000
 182.96;   14.650;   24.000;    0.000
 183.56;   12.000;  -20.000;    0.000
 184.17;   20.500;  -10.000;    0.000
 184.77;   -5.350;   25.000;    0.000
 185.38;   -6.750;  -52.000;    0.000
 185.98;   10.550;    9.000;    0.000
 186.59;    4.700;   39.000;    0.000
 187.19;   -0.600;   22.000;    0.000
 187.80;    0.850;  -11.000;    0.000
 188.40;    2.950;   15.000;    0.000
 189.01;    3.650;  -49.000;    0.000
 189.61;   -6.650;  -11.000;    0.000
 190.21;    5.300;  -24.000;    0.000
 190.82;    5.000;   22.000;    0.000
 191.42;   -9.950;  -20.000;    0.000
 192.03;  -10.300;  -29.000;    0.000
 192.63;  -16.200;   29.000;    0.000
 193.24;   -3.600;   13.000;    0.000
 193.84;   -9.450;   14.000;    0.000
 194.45;   -3.400;  -15.000;    0.000
 195.05;   -3.000;   -8.000;    0.000
 195.66;   -7.100;   40.000;    0.000
 196.26;   -6.700;  -41.000;    0.000
 196.87;   -7.000;    4.000;    0.000
 197.47;   -9.700;   -7.000;    0.000
 198.07;  -21.950;    9.000;    0.000
 198.68;   -5.500;   25.000;    0.000
 199.28;   -0.900;  -37.000;    0.000
 199.89;    5.300;  -27.000;    0.000
 200.49;   -4.100;   62.000;    0.000
 201.10;    7.850;   -9.000;    0.000
 201.70;   -2.500;    2.000;    0.000
 202.31;   -1.400;  -32.000;    0.000
 202.91;    4.650;  -14.000;    0.000
 203.51;    0.400;  -24.000;    0.000
 204.12;    3.600;  -21.000;    0.000
 204.72;    1.350;  -34.000;    0.000
 205.33;   -4.350;   55.000;    0.000
 205.93;   -6.550;    6.000;    0.000
 206.53;   -5.600;    9.000;    0.000
 207.14;  -12.000;   18.000;    0.000
 207.74;    5.350;  -10.000;    0.000
 208.35;   -3.450;   46.000;    0.000
 208.95;   -0.200;  -42.000;    0.000
 209.55;   13.550;   25.000;    0.000
 210.16;   -0.750;  -20.000;    0.000
 210.76;   -6.750;  -40.000;    0.000
 211.37;    2.000;  -28.000;    0.000
 211.97;    5.150;   -4.000;    0.000
 212.57;    0.150;  -28.000;    0.000
 213.18;   -6.400;   27.000;    0.000
 213.78;  -13.250;  -11.000;    0.000
 214.38;    2.300;  -33.000;    0.000
 214.99;   -4.850;   49.000;    0.000
 215.59;   -7.850;  -17.000;    0.000
 216.20;   -1.850;   -1.000;    0.000
 216.80;    0.450;  -13.000;    0.000
 217.40;    2.550;  -57.000;    0.000
 218.01;   -4.250;  -23.000;    0.000
 218.61;   -4.600;    3.000;    0.000
 219.21;    3.200;    6.000;    0.000
 219.82;   -0.100;  -65.000;    0.000
 220.42;    3.800;   42.000;    0.000
 221.02;  -10.550;  -20.000;    0.000
 221.63;  -16.800;  -12.000;    0.000
 222.23;   -9.150;   -8.000;    0.000
 222.83;  -17.750;   -6.000;    0.000
 223.44;   -2.250;  -14.000;    0.000
 224.04;   -2.700;   15.000;    0.000
 224.64;   -4.300;    3.000;    0.000
 225.25;  -10.350;   41.000;    0.000
 225.85;  -12.650;  -48.000;    0.000
 226.45;  -14.950;   38.000;    0.000
 227.06;   -0.050;  -19.000;    0.000
 227.66;   -4.400;   58.000;    0.000
 228.26;   -3.500;  -16.000;    0.000
 228.87;    8.550;  -11.000;    0.000
 229.47;  -10.400;   -2.000;    0.000
 230.07;   10.650;    1.000;    0.000
 230.68;  -10.950;  -14.000;    0.000
 231.28;   -2.050;   -7.000;    0.000
 231.88;   17.600;   18.000;    0.000
 232.48;   -7.300;  -34.000;    0.000
 233.09;    2.400;    4.000;    0.000
 233.69;   -4.250;  -22.000;    0.000
 234.29;   -8.600;  -10.000;    0.000
 234.90;    1.350;   -8.000;    0.000
 235.50;    1.000;   30.000;    0.000
 236.10;    1.050;   -9.000;    0.000
 236.70;    5.100;   -6.000;    0.000
 237.31;   -9.100;  -22.000;    0.000
 237.91;    0.800;   17.000;    0.000
 238.51;   -8.650;  -26.000;    0.000
 239.11;  -11.000;    9.000;    0.000
 239.72;   -4.800;    6.000;    0.000
 240.32;   -0.250;   42.000;    0.000
 240.92;   -2.200;   11.000;    0.000
 241.53;   -4.500;   -6.000;    0.000
 242.13;    7.950;   43.000;    0.000
 242.73;   -1.150;   -8.000;    0.000
 243.33;    0.200;   12.000;    0.000
 243.93;   -7.050;  -11.000;    0.000
 244.54;   -5.900;   14.000;    0.000
 245.14;   -6.600;  -71.000;    0.000
 245.74;   -6.400;  -39.000;    0.000
 246.34;    5.300;  -33.000;    0.000
 246.95;    3.600;   37.000;    0.000
 247.55;   -5.750;  -44.000;    0.000
 248.15;   -2.000;  -23.000;    0.000
 248.75;    3.200;    0.000;    0.000
 249.36;   -6.700;   12.000;    0.000
 249.96;  -12.900;   -6.000;    0.000
 250.56;   -9.250;   17.000;    0.000
 251.16;   -9.800;  -40.000;    0.000
 251.76;   -6.500;    9.000;    0.000
 252.37;    0.950;   39.000;    0.000
 252.97;   -7.950;   24.000;    0.000
 253.57;   -8.150;   -4.000;    0.000
 254.17;   -0.650;  -63.000;    0.000
 254.77;   -2.350;   12.000;    0.000
 255.38;   -4.650;  -20.000;    0.000
 255.98;  -10.100;   -7.000;    0.000
 256.58;    5.650;    3.000;    0.000
 257.18;    3.550;  -12.000;    0.000
 257.78;   -7.500;  -29.000;    0.000
 258.38;   -2.650;   45.000;    0.000
 258.99;   -6.600;  -49.000;    0.000
 259.59;   -0.650;    9.000;    0.000
 260.19;   -2.850;   -9.000;    0.000
 260.79;    2.100;  -57.000;    0.000
 261.39;    1.750;  -39.000;    0.000
 261.99;  -20.350;  -25.000;    0.000
 262.60;    3.100;  -15.000;    0.000
 263.20;   -7.150;   -7.000;    0.000
 263.80;  -10.400;  -12.000;    0.000
 264.40;  -10.250;    4.000;    0.000
 265.00;   -3.950;  -70.000;    0.000
 265.60;   -8.550;  -64.000;    0.000
 266.20;  -18.800;    1.000;    0.000
 266.81;  -10.000;  -25.000;    0.000
 267.41;   -3.150;  -31.000;    0.000
 268.01;   -1.350;   16.000;    0.000
 268.61;  -16.150;   17.000;    0.000
 269.21;   -8.400;   10.000;    0.000
 269.81;   -4.050;   22.000;    0.000
 270.41;   -4.450;  -64.000;    0.000
 271.01;   -3.850;    9.000;    0.000
 271.62;   -0.050;  -28.000;    0.000
 272.22;    1.300;  -18.000;    0.000
 272.82;   -3.300;   -4.000;    0.000
 273.42;   -7.150;   17.000;    0.000
 274.02;   -1.050;    6.000;    0.000
 274.62;   -4.050;  -37.000;    0.000
 275.22;   -9.550;  -14.000;    0.000
 275.82;   -9.150;   17.000;    0.000
 276.42;  -10.150;   -6.000;    0.000
 277.02;   -6.200;   32.000;    0.000
 277.63;   -0.400;  -17.000;    0.000
 278.23;   -5.650;   12.000;    0.000
 278.83;    0.000;  -16.000;    0.000
 279.43;   -3.500;  -24.000;    0.000
 280.03;  -10.600;    9.000;    0.000
 280.63;    3.450;   28.000;    0.000
 281.23;  -14.400;   -5.000;    0.000
 281.83;  -17.700;   25.000;    0.000
 282.43;  151.100;   53.000;    0.000
 283.03;   11.550;  -29.000;    0.000
 283.63;  -20.250;  -33.000;    0.000
 284.23;    1.700;  -34.000;    0.000
 284.83;   -8.950;   -6.000;    0.000
 285.43;    3.800;  -37.000;    0.000
 286.03;    0.100;  -21.000;    0.000
 286.63;  -11.450;  -28.000;    0.000
 287.23;  -10.500;   44.000;    0.000
 287.84;  -14.700;   14.000;    0.000
 288.44;   -6.750;  -19.000;    0.000
 289.04;  -12.250;  -14.000;    0.000
 289.64;   -4.450;    7.000;    0.000
 290.24;   -5.700;    3.000;    0.000
 290.84;   -2.600;  -68.000;    0.000
 291.44;  -11.750;    3.000;    0.000
 292.04;   -0.250;  -64.000;    0.000
 292.64;   -4.250;    0.000;    0.000
 293.24;   -4.000;   -7.000;    0.000
 293.84;   -8.200;   -3.000;    0.000
 294.44;  -11.350;  -25.000;    0.000
 295.04;  -12.450;   43.000;    0.000
 295.64;   -9.600;   13.000;    0.000
 296.24;   -5.400;   11.000;    0.000
 296.84;  -13.800;  -20.000;    0.000
 297.44;   -6.150;   24.000;    0.000
 298.04;    1.350;  -17.000;    0.000
 298.64;   -5.200;  -25.000;    0.000
 299.24;   -9.750;   -7.000;    0.000
 299.84;   -0.050;  -49.000;    0.000
 300.44;   -6.450;  -31.000;    0.000
 301.04;  -12.850;  -18.000;    0.000
 301.64;  -10.650;  -27.000;    0.000
 302.24;   -8.800;   11.000;    0.000
 302.83;   -3.900;   29.000;    0.000
 303.43;   -1.900;   -3.000;    0.000
 304.03;   -6.200;   18.000;    0.000
 304.63;  -14.050;   15.000;    0.000
 305.23;    3.700;   -7.000;    0.000
 305.83;  -17.100;  -51.000;    0.000
 306.43;    1.000;  -20.000;    0.000
 307.03;   -2.200;  -44.000;    0.000
 307.63;   -6.650;  -53.000;    0.000
 308.23;   -0.700;    1.000;    0.000
 308.83;   -2.350;  -18.000;    0.000
 309.43;   -5.200;  -25.000;    0.000
 310.03;    2.000;  -47.000;    0.000
 310.63;   -6.200;  -38.000;    0.000
 311.23;  -10.200;   10.000;    0.000
 311.83;   -7.350;   10.000;    0.000
 312.43;   -6.250;  -27.000;    0.000
 313.02;   -2.850;  -25.000;    0.000
 313.62;  -10.100;   12.000;    0.000
 314.22;    2.350;   -8.000;    0.000
 314.82;    3.950;  -16.000;    0.000
 315.42;  -12.600;  -11.000;    0.000
 316.02;   -1.800;   23.000;    0.000
 316.62;  -20.600;  -17.000;    0.000
 317.22;   -9.450;  -41.000;    0.000
 317.82;   -7.000;  -19.000;    0.000
 318.42;   12.550;  -10.000;    0.000
 319.01;  -10.350;    2.000;    0.000
 319.61;  -10.900;   -7.000;    0.000
 320.21;  -11.150;    6.000;    0.000
 320.81;    0.400;    8.000;    0.000
 321.41;    3.550;   -4.000;    0.000
 322.01;   -6.000;  -22.000;    0.000
 322.61;   -1.600;  -37.000;    0.000
 323.21;   -2.350;  -10.000;    0.000
 323.80;  -17.000;  -23.000;    0.000
 324.40;  -11.250;    7.000;    0.000
 325.00;   -7.500;   16.000;    0.000
 325.60;  -15.800;  -45.000;    0.000
 326.20;   -1.900;   -8.000;    0.000
 326.80;  -12.100;  -22.000;    0.000
 327.40;    3.950;  -26.000;    0.000
 327.99;   -9.650;  -27.000;    0.000
 328.59;  -18.250;  -12.000;    0.000
 329.19;   28.100;  -41.000;    0.000
 329.79;   -1.300;  -26.000;    0.000
 330.39;   -3.300;   -4.000;    0.000
 330.99;  -26.550;   41.000;    0.000
 331.58;   -4.600;  -45.000;    0.000
 332.18;  -12.950;  -26.000;    0.000
 332.78;    2.350;  -26.000;    0.000
 333.38;    2.150;  -15.000;    0.000
 333.98;   -6.200;   -6.000;    0.000
 334.57;   -6.500;  -38.000;    0.000
 335.17;   -8.000;  -28.000;    0.000
 335.77;   -0.950;   10.000;    0.000
 336.37;    5.950;  -30.000;    0.000
 336.97;    7.450;  -22.000;    0.000
 337.56;    0.600;   14.000;    0.000
 338.16;   -5.600;   -9.000;    0.000
 338.76;  -15.350;  -48.000;    0.000
 339.36;   -3.200;   24.000;    0.000
 339.96;    1.950;  -34.000;    0.000
 340.55;    6.800;  -14.000;    0.000
 341.15;   -4.800;   -3.000;    0.000
 341.75;    1.100;    3.000;    0.000
 342.35;  -16.900;   21.000;    0.000
 342.94;   -3.100;  -36.000;    0.000
 343.54;   -9.300;  -32.000;    0.000
 344.14;   -1.500;   13.000;    0.000
 344.74;   -0.950;   17.000;    0.000
 345.33;   -5.600;   -5.000;    0.000
 345.93;  -14.050;   13.000;    0.000
 346.53;  -11.100;   17.000;    0.000
 347.13;    1.200;   -8.000;    0.000
 347.72;  -13.000;  -35.000;    0.000
 348.32;    0.300;    3.000;    0.000
 348.92;    4.700;  -35.000;    0.000
 349.52;  -13.400;    8.000;    0.000
 350.11;    1.900;  -61.000;    0.000
 350.71;  -13.700;  -20.000;    0.000
 351.31;  -16.700;   -8.000;    0.000
 351.91;   -6.650;  -42.000;    0.000
 352.50;  -15.250;  -13.000;    0.000
 353.10;   -9.800;  -13.000;    0.000
 353.70;  -10.100;   31.000;    0.000
 354.29;   16.450;  -19.000;    0.000
 354.89;    2.800;  -12.000;    0.000
 355.49;   -6.750;   59.000;    0.000
 356.09;    3.350;  -42.000;    0.000
 356.68;  -15.850;    5.000;    0.000
 357.28;  -17.550;  -33.000;    0.000
 357.88;   -9.000;    5.000;    0.000
 358.47;  -13.450;   14.000;    0.000
 359.07;    1.700;  -10.000;    0.000
 359.67;  -19.300;  -45.000;    0.000
 360.26;   -0.650;  -55.000;    0.000
 360.86;  -24.100;    7.000;    0.000
 361.46;   -4.950;  -52.000;    0.000
 362.05;  -15.850;   -8.000;    0.000
 362.65;   -9.850;  -13.000;    0.000
 363.25;  -10.150;    3.000;    0.000
 363.84;   -6.950;   -1.000;    0.000
 364.44;   -4.050;  -19.000;    0.000
 365.04;   -1.200;    3.000;    0.000
 365.63;    3.100;  -30.000;    0.000
 366.23;   -8.250;   -9.000;    0.000
 366.83;    0.800;  -56.000;    0.000
 367.42;    1.750;   20.000;    0.000
 368.02;  -12.550;  -16.000;    0.000
 368.62;   -8.200;   -2.000;    0.000
 369.21;    3.650;  -28.000;    0.000
 369.81;    2.600;  -31.000;    0.000
 370.41;  -14.450;  -21.000;    0.000
 371.00;    2.300;   -5.000;    0.000
 371.60;   -2.650;  -36.000;    0.000
 372.19;   -0.800;   -9.000;    0.000
 372.79;  -14.050;  -23.000;    0.000
 373.39;    4.350;   47.000;    0.000
 373.98;  -15.750;   32.000;    0.000
 374.58;   -5.700;  -11.000;    0.000
 375.17;  -10.950;    2.000;    0.000
 375.77;    8.900;   34.000;    0.000
 376.37;  -13.950;  -18.000;    0.000
 376.96;   -3.650;   -5.000;    0.000
 377.56;   -9.150;   -7.000;    0.000
 378.15;   -5.600;  -10.000;    0.000
 378.75;  -17.100;  -10.000;    0.000
 379.35;  -15.650;    4.000;    0.000
 379.94;  -12.350;   -8.000;    0.000
 380.54;   -7.700;  -18.000;    0.000
 381.13;  -13.950;  -32.000;    0.000
 381.73;   -1.650;  -42.000;    0.000
 382.32;  -14.850;   13.000;    0.000
 382.92;   -2.300;  -63.000;    0.000
 383.52;  -15.000;  -32.000;    0.000
 384.11;  -11.500;   31.000;    0.000
 384.71;   -0.900;  -54.000;    0.000
 385.30;   -8.600;    2.000;    0.000
 385.90;    2.900;  -67.000;    0.000
 386.49;   -3.950;   11.000;    0.000
 387.09;   -6.600;  -20.000;    0.000
 387.68;  -10.900;  -10.000;    0.000
 388.28;   -6.250;  -14.000;    0.000
 388.87;   11.000;   26.000;    0.000
 389.47;   -9.800;  -44.000;    0.000
 390.07;  -15.350;  -31.000;    0.000
 390.66;  -18.900;  -42.000;    0.000
 391.26;  -16.300;   -8.000;    0.000
 391.85;    3.400;   -6.000;    0.000
 392.45;   -9.850;  -61.000;    0.000
 393.04;   -2.700;  -21.000;    0.000
 393.64;    4.150;    0.000;    0.000
 394.23;  -15.050;  -23.000;    0.000
 394.83;   -6.650;   14.000;    0.000
 395.42;   -5.900;  -26.000;    0.000
 396.02;   -6.700;  -27.000;    0.000
 396.61;   -3.300;  -81.000;    0.000
 397.21;  -14.900;   24.000;    0.000
 397.80;  716.050;   64.000;    0.000
 398.40;   -5.450;  -34.000;    0.000
 398.99;   -6.650;    5.000;    0.000
 399.59;  -17.700;  -27.000;    0.000
 400.18;   -6.450;  -29.000;    0.000
 400.78;   -4.150;   53.000;    0.000
 401.37;   -8.650;    2.000;    0.000
 401.96;   -7.550;  -10.000;    0.000
 402.56;  -22.250;    3.000;    0.000
 403.15;  -18.250;  -25.000;    0.000
 403.75;   -6.450;  -23.000;    0.000
 404.34;    0.050;  -12.000;    0.000
 404.94;  -22.900;    4.000;    0.000
 405.53;   -4.100;   25.000;    0.000
 406.13;  -20.850;  -22.000;    0.000
 406.72;    3.200;  -10.000;    0.000
 407.32;  -10.550;  -31.000;    0.000
 407.91;    2.600;  -49.000;    0.000
 408.50;  -23.300;  -21.000;    0.000
 409.10;   -8.400;  -10.000;    0.000
 409.69;    0.800;   -4.000;    0.000
 410.29;  -11.750;   -6.000;    0.000
 410.88;  -10.000;   -6.000;    0.000
 411.47;  -12.100;  -17.000;    0.000
 412.07;  -12.800;  -24.000;    0.000
 412.66;  -12.400;  -35.000;    0.000
 413.26;  -11.150;   -4.000;    0.000
 413.85;  -22.150;   -2.000;    0.000
 414.45;  -14.300;  -44.000;    0.000
 415.04;   -6.450;   11.000;    0.000
 415.63;   -6.050;    1.000;    0.000
 416.23;  -12.550;   29.000;    0.000
 416.82;   -6.050;  -30.000;    0.000
 417.41;   -8.450;   61.000;    0.000
 418.01;  -13.900;    0.000;    0.000
 418.60;   -0.600;  -30.000;    0.000
 419.20;  -22.650;    3.000;    0.000
 419.79;  -17.350;   58.000;    0.000
 420.38;   -9.400;  -77.000;    0.000
 420.98;   -8.800;  -23.000;    0.000
 421.57;    2.450;  -36.000;    0.000
 422.16;  -13.500;  -11.000;    0.000
 422.76;  -13.650;   12.000;    0.000
 423.35;  -10.700;   11.000;    0.000
 423.94;   -6.550;  -11.000;    0.000
 424.54;  -13.250;    7.000;    0.000
 425.13;   -6.500;  -33.000;    0.000
 425.73;   -4.950;    7.000;    0.000
 426.32;   -5.600;   28.000;    0.000
 426.91;  -10.100;  -26.000;    0.000
 427.51;   -5.150;    6.000;    0.000
 428.10;   -8.450;   -9.000;    0.000
 428.69;   -7.650;  -50.000;    0.000
 429.28;  -14.900;  -19.000;    0.000
 429.88;  -12.850;    6.000;    0.000
 430.47;  -13.550;  -30.000;    0.000
 431.06;   -3.300;    6.000;    0.000
 431.66;  -13.600;    4.000;    0.000
 432.25;  -14.750;  -31.000;    0.000
 432.84;   -5.600;   -6.000;    0.000
 433.44;  -13.550;  -36.000;    0.000
 434.03;  -14.900;  -24.000;    0.000
 434.62;   -7.050;  -17.000;    0.000
 435.22;  -11.750;  -12.000;    0.000
 435.81;  -11.400;   42.000;    0.000
 436.40;  -13.500;   15.000;    0.000
 436.99;  -10.800;  -45.000;    0.000
 437.59;  -16.650;  -21.000;    0.000
 438.18;  -13.950;   35.000;    0.000
 438.77;  -13.750;   12.000;    0.000
 439.36;  -11.700;  -36.000;    0.000
 439.96;  -16.550;   19.000;    0.000
 440.55;  -17.550;    2.000;    0.000
 441.14;  -12.000;   -5.000;    0.000
 441.73;   -6.600;    5.000;    0.000
 442.33;   -9.400;   23.000;    0.000
 442.92;   -5.650;  -10.000;    0.000
 443.51;   -8.350;    0.000;    0.000
 444.10;  -13.850;  -12.000;    0.000
 444.70;  -22.400;  -46.000;    0.000
 445.29;  -22.150;  -10.000;    0.000
 445.88;  -14.750;   36.000;    0.000
 446.47;  -18.100;    5.000;    0.000
 447.07;  -12.900;    7.000;    0.000
 447.66;  -11.500;   20.000;    0.000
 448.25;   -7.450;   -8.000;    0.000
 448.84;  -20.550;   15.000;    0.000
 449.43;   -6.900;   54.000;    0.000
 450.03;   -4.300;  -30.000;    0.000
 450.62;   -7.300;   29.000;    0.000
 451.21;  -16.400;   87.000;    0.000
 451.80;   -7.900;   25.000;    0.000
 452.39;   -9.500;   44.000;    0.000
 452.99;  -10.650;   54.000;    0.000
 453.58;   -9.650;   -5.000;    0.000
 454.17;   -1.550;   27.000;    0.000
 454.76;   -7.600;    1.000;    0.000
 455.35;   -4.100;  -19.000;    0.000
 455.95;   -7.200;   66.000;    0.000
 456.54;  -14.200;   11.000;    0.000
 457.13;   -4.300;    4.000;    0.000
 457.72;  -14.400;   40.000;    0.000
 458.31;  -24.950;   15.000;    0.000
 458.90;   -6.450;   12.000;    0.000
 459.50;   -4.550;   18.000;    0.000
 460.09;   -8.300;   45.000;    0.000
 460.68;  -12.800;   45.000;    0.000
 461.27;    1.500;   39.000;    0.000
 461.86;  -10.600;    3.000;    0.000
 462.45;   -7.150;   10.000;    0.000
 463.04;  -14.500;   47.000;    0.000
 463.64;   -8.600;   48.000;    0.000
 464.23;   -6.750;    4.000;    0.000
 464.82;   -7.650;  -29.000;    0.000
 465.41;  -15.350;   34.000;    0.000
 466.00;   -4.000;  -25.000;    0.000
 466.59;    5.500;    1.000;    0.000
 467.18;    1.000;    3.000;    0.000
 467.77;   -8.500;  -18.000;    0.000
 468.37;    8.100;  -44.000;    0.000
 468.96;  -13.800;  -14.000;    0.000
 469.55;    1.650;   -4.000;    0.000
 470.14;   -1.850;   30.000;    0.000
 470.73;   -8.550;  -14.000;    0.000
 471.32;   -0.300;   11.000;    0.000
 471.91;   -1.500;   -4.000;    0.000
 472.50;   -2.300;  -17.000;    0.000
 473.09;    8.000;    8.000;    0.000
 473.68;   -6.200;  -12.000;    0.000
 474.27;    7.800;  -11.000;    0.000
 474.86;   -0.950;   -7.000;    0.000
 475.46;   -5.100;  -35.000;    0.000
 476.05;    9.950;  -21.000;    0.000
 476.64;  -19.150;   21.000;    0.000
 477.23;  -14.850;   27.000;    0.000
 477.82;   -8.400;   30.000;    0.000
 478.41;    3.200;  -57.000;    0.000
 479.00;  -10.100;  -17.000;    0.000
 479.59;  -10.100;  -75.000;    0.000
 480.18;    7.100;  -23.000;    0.000
 480.77;   -5.950;   10.000;    0.000
 481.36;   -5.350;   39.000;    0.000
 481.95;    1.350;  -22.000;    0.000
 482.54;   -0.600;   34.000;    0.000
 483.13;    6.200;  -21.000;    0.000
 483.72;    4.000;    4.000;    0.000
 484.31;    2.800;   18.000;    0.000
 484.90;    1.400;   14.000;    0.000
 485.49;   -3.400;   60.000;    0.000
 486.08;    3.950;   41.000;    0.000
 486.67;   12.250;   13.000;    0.000
 487.26;   -5.150;   28.000;    0.000
 487.85;   -1.800;    8.000;    0.000
 488.44;    1.950;   25.000;    0.000
 489.03;   10.000;  -47.000;    0.000
 489.62;    0.150;    2.000;    0.000
 490.21;    8.000;   33.000;    0.000
 490.80;    8.000;   59.000;    0.000
 491.39;   11.000;  -27.000;    0.000
 491.98;    4.300;   38.000;    0.000
 492.57;   13.650;   -6.000;    0.000
 493.16;    7.550;   -4.000;    0.000
 493.75;    4.300;   26.000;    0.000
 494.34;   15.800;   24.000;    0.000
 494.93;    8.500;   32.000;    0.000
 495.52;    7.100;   12.000;    0.000
 496.11;    9.500;   39.000;    0.000
 496.70;   12.200;   66.000;    0.000
 497.29;   16.050;   61.000;    0.000
 497.88;   18.950;   59.000;    0.000
 498.47;   16.450;  -23.000;    0.000
 499.06;   26.600;   63.000;    0.000
 499.64;    0.200;   14.000;    0.000
 500.23;   16.700;   -8.000;    0.000
 500.82;   20.400;   38.000;    0.000
 501.41;   23.750;   50.000;    0.000
 502.00;    5.800;   48.000;    0.000
 502.59;   22.500;   50.000;    0.000
 503.18;   16.700;   43.000;    0.000
 503.77;   13.350;   24.000;    0.000
 504.36;   26.900;   26.000;    0.000
 504.95;   20.650;    9.000;    0.000
 505.54;   19.500;   18.000;    0.000
 506.12;   21.300;  -13.000;    0.000
 506.71;   23.450;   49.000;    0.000
 507.30;   23.200;    6.000;    0.000
 507.89;   24.200;   61.000;    0.000
 508.48;   21.550;   90.000;    0.000
 509.07;   24.050;   42.000;    0.000
 509.66;   35.950;   26.000;    0.000
 510.25;   25.400;   60.000;    0.000
 510.84;   34.500;   82.000;    0.000
 511.42;   28.000;   66.000;    0.000
 512.01;   50.700;   24.000;    0.000
 512.60;   33.800;   18.000;    0.000
 513.19;   30.000;   67.000;    0.000
 513.78;   41.550;   -2.000;    0.000
 514.37;   51.500;   64.000;    0.000
 514.95;   56.950;   81.000;    0.000
 515.54;   39.450;   28.000;    0.000
 516.13;   24.800;   44.000;    0.000
 516.72;   38.300;   72.000;    0.000
 517.31;   40.250;   17.000;    0.000
 517.90;   35.600;   72.000;    0.000
 518.48;   42.000;   -1.000;    0.000
 519.07;   32.750;   25.000;    0.000
 519.66;   53.050;   55.000;    0.000
 520.25;   47.250;   36.000;    0.000
 520.84;   45.750;   21.000;    0.000
 521.43;   53.750;   13.000;    0.000
 522.01;   57.800;  -31.000;    0.000
 522.60;   58.300;   81.000;    0.000
 523.19;   39.400;   27.000;    0.000
 523.78;   41.500;   52.000;    0.000
 524.37;   57.100;   -3.000;    0.000
 524.95;   58.050;   44.000;    0.000
 525.54;   61.350;   37.000;    0.000
 526.13;   61.150;   25.000;    0.000
 526.72;   61.700;   27.000;    0.000
 527.30;   49.650;   66.000;    0.000
 527.89;   62.600;   37.000;    0.000
 528.48;   63.250;   98.000;    0.000
 529.07;   72.350;   33.000;    0.000
 529.65;   81.900;   59.000;    0.000
 530.24;   75.250;   -4.000;    0.000
 530.83;   69.250;   16.000;    0.000
 531.42;   71.550;   18.000;    0.000
 532.00;   87.050;  -18.000;    0.000
 532.59;   77.800;   70.000;    0.000
 533.18;   80.200;   53.000;    0.000
 533.77;   88.250;    3.000;    0.000
 534.35;   73.750;   20.000;    0.000
 534.94;   83.900;   36.000;    0.000
 535.53;   92.300;   58.000;    0.000
 536.12;   83.600;   13.000;    0.000
 536.70;   82.250;   23.000;    0.000
 537.29;   78.150;   83.000;    0.000
 537.88;   87.000;   69.000;    0.000
 538.46;   94.400;   28.000;    0.000
 539.05;   95.500;   42.000;    0.000
 539.64;   94.200;   66.000;    0.000
 540.23;   96.150;   53.000;    0.000
 540.81;   90.700;    3.000;    0.000
 541.40;  107.100;   83.000;    0.000
 541.99;   96.750;   62.000;    0.000
 542.57;  105.650;   76.000;    0.000
 543.16;  100.350;   83.000;    0.000
 543.75;   95.050;   63.000;    0.000
 544.33;   93.800;    2.000;    0.000
 544.92;  109.750;   50.000;    0.000
 545.51;  101.200;   75.000;    0.000
 546.09;  108.700;   23.000;    0.000
 546.68;  111.250;   36.000;    0.000
 547.27;  116.600;   42.000;    0.000
 547.85;  111.650;   30.000;    0.000
 548.44;  104.500;   15.000;    0.000
 549.03;  129.200;   88.000;    0.000
 549.61;  117.300;   43.000;    0.000
 550.20;  136.300;   36.000;    0.000
 550.78;  119.150;   10.000;    0.000
 551.37;  135.600;   60.000;    0.000
 551.96;  131.100;   51.000;    0.000
 552.54;  132.350;   36.000;    0.000
 553.13;  134.400;   49.000;    0.000
 553.72;  140.250;   24.000;    0.000
 554.30;  141.950;    9.000;    0.000
 554.89;  150.750;   80.000;    0.000
 555.47;  149.700;   25.000;    0.000
 556.06;  162.800;   27.000;    0.000
 556.65;  158.250;   81.000;    0.000
 557.23;  162.100;   19.000;    0.000
 557.82;  165.450;   31.000;    0.000
 558.40;  167.300;   27.000;    0.000
 558.99;  159.550;   57.000;    0.000
 559.58;  179.450;  -21.000;    0.000
 560.16;  161.350;   51.000;    0.000
 560.75;  173.400;   78.000;    0.000
 561.33;  188.300;   35.000;    0.000
 561.92;  175.050;   23.000;    0.000
 562.50;  173.800;   73.000;    0.000
 563.09;  186.750;   72.000;    0.000
 563.68;  196.700;   70.000;    0.000
 564.26;  195.550;   68.000;    0.000
 564.85;  184.850;   75.000;    0.000
 565.43;  194.250;   83.000;    0.000
 566.02;  209.450;   49.000;    0.000
 566.60;  214.300;   24.000;    0.000
 567.19;  201.850;   93.000;    0.000
 567.77;  207.000;   46.000;    0.000
 568.36;  221.800;    1.000;    0.000
 568.94;  217.200;   37.000;    0.000
 569.53;  221.650;   -3.000;    0.000
 570.11;  229.550;   -3.000;    0.000
 570.70;  228.200;   30.000;    0.000
 571.28;  227.000;    1.000;    0.000
 571.87;  233.700;  100.000;    0.000
 572.45;  234.650;   55.000;    0.000
 573.04;  234.900;   18.000;    0.000
 573.62;  244.600;   40.000;    0.000
 574.21;  250.300;   62.000;    0.000
 574.79;  250.450;   71.000;    0.000
 575.38;  244.750;   99.000;    0.000
 575.96;  255.100;   24.000;    0.000
 576.55;  268.800;   59.000;    0.000
 577.13;  262.000;   14.000;    0.000
 577.72;  259.550;  111.000;    0.000
 578.30;  269.500;   92.000;    0.000
 578.89;  280.350;   81.000;    0.000
 579.47;  277.900;   68.000;    0.000
 580.06;  291.250;   32.000;    0.000
 580.64;  276.500;   40.000;    0.000
 581.23;  289.150;   45.000;    0.000
 581.81;  287.200;    7.000;    0.000
 582.39;  280.300;   91.000;    0.000
 582.98;  302.200;   35.000;    0.000
 583.56;  300.350;   57.000;    0.000
 584.15;  294.900;   87.000;    0.000
 584.73;  314.400;   71.000;    0.000
 585.32;  315.300;   64.000;    0.000
 585.90;  311.550;   89.000;    0.000
 586.48;  313.350;   45.000;    0.000
 587.07;  315.100;   27.000;    0.000
 587.65;  326.500;   20.000;    0.000
 588.24;  334.200;   43.000;    0.000
 588.82;  318.650;   39.000;    0.000
 589.41;  418.000;   66.000;    0.000
 589.99;  333.500;   90.000;    0.000
 590.57;  321.600;   47.000;    0.000
 591.16;  344.950;   92.000;    0.000
 591.74;  330.700;   15.000;    0.000
 592.32;  339.000;   84.000;    0.000
 592.91;  360.700;   48.000;    0.000
 593.49;  347.600;   38.000;    0.000
 594.08;  351.500;   33.000;    0.000
 594.66;  354.100;   70.000;    0.000
 595.24;  357.250;  115.000;    0.000
 595.83;  351.600;   61.000;    0.000
 596.41;  354.600;   92.000;    0.000
 596.99;  350.950;    7.000;    0.000
 597.58;  360.750;   70.000;    0.000
 598.16;  378.300;   54.000;    0.000
 598.74;  411.400;   48.000;    0.000
 599.33;  380.600;   41.000;    0.000
 599.91;  391.150;   91.000;    0.000
 600.49;  385.300;   74.000;    0.000
 601.08;  381.900;   44.000;    0.000
 601.66;  387.100;   23.000;    0.000
 602.24;  401.650;   74.000;    0.000
 602.83;  399.750;   86.000;    0.000
 603.41;  414.400;   66.000;    0.000
 603.99;  395.600;   11.000;    0.000
 604.58;  400.850;   33.000;    0.000
 605.16;  401.550;  100.000;    0.000
 605.74;  426.700;   64.000;    0.000
 606.33;  424.150;   22.000;    0.000
 606.91;  444.850;   13.000;    0.000
 607.49;  445.950;   23.000;    0.000
 608.07;  453.000;   29.000;    0.000
 608.66;  445.550;   83.000;    0.000
 609.24;  457.250;   30.000;    0.000
 609.82;  439.150;   47.000;    0.000
 610.41;  467.800;   45.000;    0.000
 610.99;  447.550;   51.000;    0.000
 611.57;  472.500;   -7.000;    0.000
 612.15;  447.600;   58.000;    0.000
 612.74;  469.300;   29.000;    0.000
 613.32;  466.650;   55.000;    0.000
 613.90;  467.950;   31.000;    0.000
 614.48;  459.700;   51.000;    0.000
 615.07;  450.400;   36.000;    0.000
 615.65;  460.200;   75.000;    0.000
 616.23;  448.350;   63.000;    0.000
 616.81;  448.200;   44.000;    0.000
 617.40;  453.150;   47.000;    0.000
 617.98;  480.200;   -5.000;    0.000
 618.56;  490.450;  -11.000;    0.000
 619.14;  508.350;   52.000;    0.000
 619.72;  511.950;    1.000;    0.000
 620.31;  536.300;   42.000;    0.000
 620.89;  526.000;   75.000;    0.000
 621.47;  547.450;   57.000;    0.000
 622.05;  541.650;   71.000;    0.000
 622.63;  547.000;   49.000;    0.000
 623.22;  556.000;   84.000;    0.000
 623.80;  563.750;   72.000;    0.000
 624.38;  594.000;  -20.000;    0.000
 624.96;  571.150;   64.000;    0.000
 625.54;  570.500;   52.000;    0.000
 626.13;  592.400;   25.000;    0.000
 626.71;  624.600;  -23.000;    0.000
 627.29;  600.050;    9.000;    0.000
 627.87;  599.500;   53.000;    0.000
 628.45;  617.000;   35.000;    0.000
 629.03;  633.800;   42.000;    0.000
 629.62;  602.050;  -35.000;    0.000
 630.20;  613.900;   62.000;    0.000
 630.78;  625.500;   35.000;    0.000
 631.36;  625.900;   17.000;    0.000
 631.94;  640.950;    8.000;    0.000
 632.52;  633.800;   32.000;    0.000
 633.10;  635.400;   56.000;    0.000
 633.68;  649.100;   47.000;    0.000
 634.27;  638.150;   27.000;    0.000
 634.85;  659.200;    1.000;    0.000
 635.43;  684.050;    5.000;    0.000
 636.01;  649.600;   23.000;    0.000
 636.59;  678.150;   -8.000;    0.000
 637.17;  700.450;   39.000;    0.000
 637.75;  671.000;   41.000;    0.000
 638.33;  667.800;    0.000;    0.000
 638.91;  685.050;    4.000;    0.000
 639.50;  701.900;   13.000;    0.000
 640.08;  687.500;   60.000;    0.000
 640.66;  685.050;   18.000;    0.000
 641.24;  706.450;   13.000;    0.000
 641.82;  717.500;   17.000;    0.000
 642.40;  703.800;   -5.000;    0.000
 642.98;  709.850;   35.000;    0.000
 643.56;  724.750;  -28.000;    0.000
 644.14;  733.600;   30.000;    0.000
 644.72;  743.600;    7.000;    0.000
 645.30;  741.450;   33.000;    0.000
 645.88;  738.850;   26.000;    0.000
 646.46;  743.800;   59.000;    0.000
 647.04;  742.700;  -14.000;    0.000
 647.62;  756.350;   57.000;    0.000
 648.20;  756.500;    5.000;    0.000
 648.78;  749.200;   82.000;    0.000
 649.36;  745.000;   10.000;    0.000
 649.94;  757.250;   12.000;    0.000
 650.52;  757.950;  -15.000;    0.000
 651.11;  762.000;   32.000;    0.000
 651.69;  773.150;   44.000;    0.000
 652.27;  783.350;   70.000;    0.000
 652.85;  782.650;   25.000;    0.000
 653.43;  796.250;  -26.000;    0.000
 654.01;  789.500;  -17.000;    0.000
 654.59;  807.050;   37.000;    0.000
 655.17;  818.700;  -44.000;    0.000
 655.74;  841.250;  -60.000;    0.000
 656.32;  844.900;   -2.000;    0.000
 656.90;  851.950;   27.000;    0.000
 657.48;  868.500;   27.000;    0.000
 658.06;  882.850;  -15.000;    0.000
 658.64;  887.900;   21.000;    0.000
 659.22;  898.550;   38.000;    0.000
 659.80;  913.600;  -32.000;    0.000
 660.38;  927.550;   -1.000;    0.000
 660.96;  943.450;  -39.000;    0.000
 661.54;  945.650;  -28.000;    0.000
 662.12;  940.700;    8.000;    0.000
 662.70;  956.300;   23.000;    0.000
 663.28;  926.200;  -18.000;    0.000
 663.86;  905.050;   10.000;    0.000
 664.44;  927.850;    5.000;    0.000
 665.02;  904.650;   53.000;    0.000
 665.60;  909.700;  -16.000;    0.000
 666.18;  928.450;  -34.000;    0.000
 666.75;  922.900;  -48.000;    0.000
 667.33;  922.250;   46.000;    0.000
 667.91;  954.400;  -53.000;    0.000
 668.49;  930.100;  -19.000;    0.000
 669.07;  930.400;  -24.000;    0.000
 669.65;  939.600;  -17.000;    0.000
 670.23;  947.100;  -14.000;    0.000
 670.81;  956.600;  -37.000;    0.000
 671.39;  958.800;  -47.000;    0.000
 671.97;  966.900;   -1.000;    0.000
 672.54;  992.900;  -14.000;    0.000
 673.12;  994.700;    0.000;    0.000
 673.70; 1019.650;  -22.000;    0.000
 674.28; 1008.400;   12.000;    0.000
 674.86; 1029.800;  -56.000;    0.000
 675.44; 1038.800;  -56.000;    0.000
 676.02; 1031.400;   47.000;    0.000
 676.59; 1052.700;  -10.000;    0.000
 677.17; 1054.600;   29.000;    0.000
 677.75; 1057.400;   -9.000;    0.000
 678.33; 1075.100;  -57.000;    0.000
 678.91; 1075.550;    9.000;    0.000
 679.49; 1100.200;   10.000;    0.000
 680.06; 1113.700;  -30.000;    0.000
 680.64; 1106.700;   -8.000;    0.000
 681.22; 1123.050;   -7.000;    0.000
 681.80; 1124.200;   31.000;    0.000
 682.38; 1143.050;   18.000;    0.000
 682.96; 1163.850;  -60.000;    0.000
 683.53; 1152.050;  -41.000;    0.000
 684.11; 1174.650;  -11.000;    0.000
 684.69; 1156.250;   21.000;    0.000
 685.27; 1195.650;  -34.000;    0.000
 685.85; 1206.450;  -21.000;    0.000
 686.42; 1191.900;  -46.000;    0.000
 687.00; 1218.350;  -18.000;    0.000
 687.58; 1218.650;  -63.000;    0.000
 688.16; 1235.800;  -38.000;    0.000
 688.73; 1237.250;  -86.000;    0.000
 689.31; 1221.450;  -38.000;    0.000
 689.89; 1242.950;  -24.000;    0.000
 690.47; 1234.750;  -22.000;    0.000
 691.04; 1237.950;    4.000;    0.000
 691.62; 1258.500;  -10.000;    0.000
 692.20; 1236.750;  -66.000;    0.000
 692.78; 1263.850;   51.000;    0.000
 693.35; 1267.200;  -14.000;    0.000
 693.93; 1277.600;   -1.000;    0.000
 694.51; 1262.350;  -12.000;    0.000
 695.09; 1267.500;   -6.000;    0.000
 695.66; 1261.350;  -42.000;    0.000
 696.24; 1265.700;    6.000;    0.000
 696.82; 1251.650;  -78.000;    0.000
 697.39; 1263.250;   37.000;    0.000
 697.97; 1244.250;  -34.000;    0.000
 698.55; 1241.050;  -36.000;    0.000
 699.13; 1246.700;  -12.000;    0.000
 699.70; 1244.050;   -4.000;    0.000
 700.28; 1250.050;   13.000;    0.000
 700.86; 1254.750;   28.000;    0.000
 701.43; 1236.750;    5.000;    0.000
 702.01; 1237.250;  -11.000;    0.000
 702.59; 1230.500;  -17.000;    0.000
 703.16; 1247.850;  -40.000;    0.000
 703.74; 1268.150;  -21.000;    0.000
 704.32; 1257.200;   -2.000;    0.000
 704.89; 1213.350;    1.000;    0.000
 705.47; 1237.450;   -5.000;    0.000
 706.05; 1243.950;   -3.000;    0.000
 706.62; 1229.400;  -67.000;    0.000
 707.20; 1250.650;  -20.000;    0.000
 707.78; 1253.450;   -8.000;    0.000
 708.35; 1264.900;  -18.000;    0.000
 708.93; 1261.600;  -18.000;    0.000
 709.51; 1241.200;  -31.000;    0.000
 710.08; 1263.250;   -9.000;    0.000
 710.66; 1237.800;    5.000;    0.000
 711.23; 1263.050;  -18.000;    0.000
 711.81; 1248.500;  -38.000;    0.000
 712.39; 1273.450;  -38.000;    0.000
 712.96; 1260.750;    0.000;    0.000
 713.54; 1267.900;    8.000;    0.000
 714.11; 1271.950;  -44.000;    0.000
 714.69; 1255.950;  -26.000;    0.000
 715.27; 1260.500;   -6.000;    0.000
 715.84; 1255.550;  -57.000;    0.000
 716.42; 1258.350;  -59.000;    0.000
 716.99; 1274.050;  -49.000;    0.000
 717.57; 1297.950;  -48.000;    0.000
 718.15; 1262.050;  -14.000;    0.000
 718.72; 1299.000;  -18.000;    0.000
 719.30; 1304.700;   14.000;    0.000
 719.87; 1302.950;  -16.000;    0.000
 720.45; 1287.150;   -1.000;    0.000
 721.02; 1307.750;   20.000;    0.000
 721.60; 1327.600;   18.000;    0.000
 722.17; 1308.700;  -36.000;    0.000
 722.75; 1311.600;   -3.000;    0.000
 723.33; 1319.550;  -10.000;    0.000
 723.90; 1314.000;  -51.000;    0.000
 724.48; 1321.900;   10.000;    0.000
 725.05; 1330.800;  -43.000;    0.000
 725.63; 1336.750;   19.000;    0.000
 726.20; 1349.150;   42.000;    0.000
 726.78; 1306.450;  -37.000;    0.000
 727.35; 1352.550;   10.000;    0.000
 727.93; 1370.650;  -37.000;    0.000
 728.50; 1364.650;  -13.000;    0.000
 729.08; 1335.350;  -50.000;    0.000
 729.65; 1337.400;  -11.000;    0.000
 730.23; 1370.650;  -68.000;    0.000
 730.80; 1398.550;   25.000;    0.000
 731.38; 1384.600;  -62.000;    0.000
 731.95; 1373.000;  -42.000;    0.000
 732.53; 1383.050;  -37.000;    0.000
 733.10; 1400.000;  -59.000;    0.000
 733.68; 1358.000;  -41.000;    0.000
 734.25; 1399.000;  -42.000;    0.000
 734.82; 1412.500;   16.000;    0.000
 735.40; 1392.800;    5.000;    0.000
 735.97; 1410.100;   -3.000;    0.000
 736.55; 1409.350;  -55.000;    0.000
 737.12; 1429.150;  -40.000;    0.000
 737.70; 1421.200;   -5.000;    0.000
 738.27; 1435.700;  -15.000;    0.000
 738.85; 1413.200;  -44.000;    0.000
 739.42; 1444.600;  -23.000;    0.000
 739.99; 1440.750;  -21.000;    0.000
 740.57; 1477.350;  -52.000;    0.000
 741.14; 1455.650;   -2.000;    0.000
 741.72; 1457.950;    5.000;    0.000
 742.29; 1514.200;   -4.000;    0.000
 742.87; 1492.050;  -40.000;    0.000
 743.44; 1505.950;  -17.000;    0.000
 744.01; 1512.150;  -68.000;    0.000
 744.59; 1513.200;  -54.000;    0.000
 745.16; 1515.450;    9.000;    0.000
 745.73; 1516.550;  -13.000;    0.000
 746.31; 1522.950;  -32.000;    0.000
 746.88; 1551.000;   -1.000;    0.000
 747.46; 1542.450;  -30.000;    0.000
 748.03; 1562.650;  -44.000;    0.000
 748.60; 1583.750;    6.000;    0.000
 749.18; 1590.600;  -11.000;    0.000
 749.75; 1573.100;  -54.000;    0.000
 750.32; 1586.150;  -32.000;    0.000
 750.90; 1576.000;   15.000;    0.000
 751.47; 1601.800;    8.000;    0.000
 752.04; 1588.950;  -19.000;    0.000
 752.62; 1583.700;   36.000;    0.000
 753.19; 1575.500;  -11.000;    0.000
 753.76; 1594.300;    1.000;    0.000
 754.34; 1588.750;  -11.000;    0.000
 754.91; 1577.700;  -44.000;    0.000
 755.48; 1606.350;  -45.000;    0.000
 756.06; 1620.450;    8.000;    0.000
 756.63; 1656.300;  -43.000;    0.000
 757.20; 1616.600;   46.000;    0.000
 757.78; 1601.450;  -39.000;    0.000
 758.35; 1651.350;  -61.000;    0.000
 758.92; 1609.100;  -21.000;    0.000
 759.50; 1615.800;  -20.000;    0.000
 760.07; 1619.250;  -22.000;    0.000
 760.64; 1608.550;   -4.000;    0.000
 761.21; 1618.800;    2.000;    0.000
 761.79; 1644.400;    3.000;    0.000
 762.36; 1628.200;  -21.000;    0.000
 762.93; 1681.950;  -22.000;    0.000
 763.50; 1672.950;  -23.000;    0.000
 764.08; 1663.950;  -14.000;    0.000
 764.65; 1670.150;   -8.000;    0.000
 765.22; 1680.250;  -59.000;    0.000
 765.79; 1674.150;  -24.000;    0.000
 766.37; 1658.900;  -18.000;    0.000
 766.94; 1643.600;  -16.000;    0.000
 767.51; 1649.450;  -17.000;    0.000
 768.08; 1648.400;  -11.000;    0.000
 768.66; 1656.350;    3.000;    0.000
 769.23; 1660.450;  -12.000;    0.000
 769.80; 1617.200;   15.000;    0.000
 770.37; 1651.150;  -44.000;    0.000
 770.94; 1652.200;  -64.000;    0.000
 771.52; 1637.150;  -28.000;    0.000
 772.09; 1654.900;  -29.000;    0.000
 772.66; 1622.750;  -62.000;    0.000
 773.23; 1623.500;  -55.000;    0.000
 773.80; 1634.050;  -49.000;    0.000
 774.38; 1610.000;  -23.000;    0.000
 774.95; 1619.700;  -38.000;    0.000
 775.52; 1615.300;    8.000;    0.000
 776.09; 1623.000;  -15.000;    0.000
 776.66; 1616.900;  -85.000;    0.000
 777.24; 1632.250;  -41.000;    0.000
 777.81; 1616.350;   -2.000;    0.000
 778.38; 1639.750;  -61.000;    0.000
 778.95; 1624.000;  -26.000;    0.000
 779.52; 1591.000;  -34.000;    0.000
 780.09; 1601.350;  -17.000;    0.000
 780.66; 1631.050;  -38.000;    0.000
 781.24; 1606.100;  -25.000;    0.000
 781.81; 1579.250;  -56.000;    0.000
 782.38; 1553.950;  -24.000;    0.000
 782.95; 1556.850;  -32.000;    0.000
 783.52; 1562.200;  -36.000;    0.000
 784.09; 1560.200;  -24.000;    0.000
 784.66; 1547.200;  -21.000;    0.000
 785.23; 1586.000;  -17.000;    0.000
 785.80; 1554.100;  -23.000;    0.000
 786.38; 1560.800;  -17.000;    0.000
 786.95; 1581.700;  -33.000;    0.000
 787.52; 1545.650; -104.000;    0.000
 788.09; 1538.700;  -15.000;    0.000
 788.66; 1562.750;  -17.000;    0.000
 789.23; 1563.550;  -23.000;    0.000
 789.80; 1537.500;  -38.000;    0.000
 790.37; 1553.500;  -23.000;    0.000
 790.94; 1547.200;  -37.000;    0.000
 791.51; 1547.200;   -9.000;    0.000
 792.08; 1515.000;  -31.000;    0.000
 792.65; 1506.550;   -6.000;    0.000
 793.22; 1515.400;  -67.000;    0.000
 793.80; 1541.050;   21.000;    0.000
 794.37; 1488.750;  -68.000;    0.000
 794.94; 1501.450;  -66.000;    0.000
 795.51; 1523.300;  -28.000;    0.000
 796.08; 1523.200;  -16.000;    0.000
 796.65; 1551.500;  -15.000;    0.000
 797.22; 1524.100;   19.000;    0.000
 797.79; 1559.350;  -18.000;    0.000
 798.36; 1538.550;    1.000;    0.000
 798.93; 1505.750;  -49.000;    0.000
 799.50; 1519.450;  -22.000;    0.000
 800.07; 1550.800;  -78.000;    0.000
 800.64; 1534.150;  -60.000;    0.000
 801.21; 1530.800;   23.000;    0.000
 801.78; 1544.650;    1.000;    0.000
 802.35; 1527.350;    8.000;    0.000
 802.92; 1519.000;  -44.000;    0.000
 803.49; 1502.000;  -23.000;    0.000
 804.06; 1545.350;  -31.000;    0.000
 804.63; 1552.550;   -5.000;    0.000
 805.20; 1556.500;  -13.000;    0.000
 805.77; 1546.050;   -7.000;    0.000
 806.34; 1565.100;   26.000;    0.000
 806.91; 1572.150;  -49.000;    0.000
 807.47; 1512.600;  -19.000;    0.000
 808.04; 1528.600;  -14.000;    0.000
 808.61; 1544.100;  -40.000;    0.000
 809.18; 1539.000;  -38.000;    0.000
 809.75; 1543.750;  -37.000;    0.000
 810.32; 1550.600;   -5.000;    0.000
 810.89; 1531.500;   18.000;    0.000
 811.46; 1554.100;  -37.000;    0.000
 812.03; 1550.550;   24.000;    0.000
 812.60; 1544.700;   -8.000;    0.000
 813.17; 1538.750;   -7.000;    0.000
 813.74; 1534.100;  -36.000;    0.000
 814.31; 1533.200;   51.000;    0.000
 814.87; 1526.950;  -11.000;    0.000
 815.44; 1509.050;  -39.000;    0.000
 816.01; 1530.300;  -49.000;    0.000
 816.58; 1541.350;  -55.000;    0.000
 817.15; 1514.600;  -38.000;    0.000
 817.72; 1525.550;    4.000;    0.000
 818.29; 1550.150;   -9.000;    0.000
 818.86; 1523.100;  -53.000;    0.000
 819.42; 1541.700;  -77.000;    0.000
 819.99; 1552.800;  -46.000;    0.000
 820.56; 1513.850;  -39.000;    0.000
 821.13; 1515.800;   -3.000;    0.000
 821.70; 1517.450;  -20.000;    0.000
 822.27; 1525.300;  -35.000;    0.000
 822.84; 1545.350;   10.000;    0.000
 823.40; 1519.850;   36.000;    0.000
 823.97; 1541.100;    7.000;    0.000
 824.54; 1542.300;  -35.000;    0.000
 825.11; 1522.350;  -29.000;    0.000
 825.68; 1532.600;  -24.000;    0.000
 826.24; 1525.300;  -15.000;    0.000
 826.81; 1545.850;    7.000;    0.000
 827.38; 1563.550;  -57.000;    0.000
 827.95; 1556.600;  -51.000;    0.000
 828.52; 1547.850;   -5.000;    0.000
 829.08; 1567.450;   26.000;    0.000
 829.65; 1559.000;  -52.000;    0.000
 830.22; 1559.900;   -7.000;    0.000
 830.79; 1586.550;  -11.000;    0.000
 831.36; 1585.050;  -43.000;    0.000
 831.92; 1579.800;  -82.000;    0.000
 832.49; 1586.900;  -33.000;    0.000
 833.06; 1553.100;  -91.000;    0.000
 833.63; 1580.650;   16.000;    0.000
 834.19; 1561.400;   15.000;    0.000
 834.76; 1540.400;  -34.000;    0.000
 835.33; 1529.200;  -32.000;    0.000
 835.90; 1567.650;  -20.000;    0.000
 836.46; 1577.450;   -3.000;    0.000
 837.03; 1612.500;  -17.000;    0.000
 837.60; 1585.650;  -18.000;    0.000
 838.17; 1603.650;  -63.000;    0.000
 838.73; 1602.950;  -45.000;    0.000
 839.30; 1617.250;  -18.000;    0.000
 839.87; 1636.300;    2.000;    0.000
 840.43; 1621.650;  -42.000;    0.000
 841.00; 1626.750;   19.000;    0.000
 841.57; 1654.150;  -81.000;    0.000
 842.14; 1627.750;  -42.000;    0.000
 842.70; 1611.500;  -32.000;    0.000
 843.27; 1588.150;  -42.000;    0.000
 843.84; 1605.700;  -59.000;    0.000
 844.40; 1626.450;  -24.000;    0.000
 844.97; 1640.700;  -28.000;    0.000
 845.54; 1640.000;  -49.000;    0.000
 846.10; 1652.300;  -34.000;    0.000
 846.67; 1621.150;  -85.000;    0.000
 847.24; 1644.350;    9.000;    0.000
 847.80; 1641.800;  -79.000;    0.000
 848.37; 1676.000;   -3.000;    0.000
 848.94; 1665.300;  -70.000;    0.000
 849.50; 1676.850;   23.000;    0.000
 850.07; 1667.350;  -45.000;    0.000
 850.63; 1665.150;    6.000;    0.000
 851.20; 1636.300;  -13.000;    0.000
 851.77; 1649.950;   -4.000;    0.000
 852.33; 1655.100;  -48.000;    0.000
 852.90; 1640.950;  -61.000;    0.000
 853.47; 1693.650;  -64.000;    0.000
 854.03; 1653.600;  -51.000;    0.000
 854.60; 1659.050;  -27.000;    0.000
 855.16; 1701.800;   -3.000;    0.000
 855.73; 1666.950;  -70.000;    0.000
 856.30; 1660.800;  -13.000;    0.000
 856.86; 1681.100;  -55.000;    0.000
 857.43; 1702.300;   -2.000;    0.000
 857.99; 1657.250;  -47.000;    0.000
 858.56; 1660.200;  -34.000;    0.000
 859.12; 1695.500;  -34.000;    0.000
 859.69; 1669.000;    0.000;    0.000
 860.26; 1663.950;  -30.000;    0.000
 860.82; 1680.200;  -28.000;    0.000
 861.39; 1688.300;  -44.000;    0.000
 861.95; 1660.000;   12.000;    0.000
 862.52; 1658.600;  -19.000;    0.000
 863.08; 1660.800;   28.000;    0.000
 863.65; 1651.400;   -5.000;    0.000
 864.21; 1639.950;    1.000;    0.000
 864.78; 1664.600;    3.000;    0.000
 865.34; 1641.000;  -10.000;    0.000
 865.91; 1646.750;  -43.000;    0.000
 866.47; 1619.350;  -47.000;    0.000
 867.04; 1670.250;    5.000;    0.000
 867.61; 1616.900;  -31.000;    0.000
 868.17; 1654.100;  -64.000;    0.000
 868.74; 1672.500;   28.000;    0.000
 869.30; 1670.550;  -45.000;    0.000
 869.86; 1642.000;  -44.000;    0.000
 870.43; 1648.300;  -27.000;    0.000
 870.99; 1655.750;  -23.000;    0.000
 871.56; 1666.250;  -63.000;    0.000
 872.12; 1672.200;   -9.000;    0.000
 872.69; 1631.800;  -43.000;    0.000
 873.25; 1659.850;  -38.000;    0.000
 873.82; 1652.950;  -55.000;    0.000
 874.38; 1666.400;  -30.000;    0.000
 874.95; 1660.850;  -16.000;    0.000
 875.51; 1643.150;  -64.000;    0.000
 876.08; 1597.450;  -18.000;    0.000
 876.64; 1615.700;  -86.000;    0.000
 877.20; 1604.550;  -50.000;    0.000
 877.77; 1607.650;  -41.000;    0.000
 878.33; 1611.850;   -9.000;    0.000
 878.90; 1577.000;  -40.000;    0.000
 879.46; 1590.300;  -62.000;    0.000
 880.03; 1590.800;    2.000;    0.000
 880.59; 1610.500;  -42.000;    0.000
 881.15; 1604.200;   -9.000;    0.000
 881.72; 1628.800;  -71.000;    0.000
 882.28; 1629.050;    4.000;    0.000
 882.85; 1599.750;  -12.000;    0.000
 883.41; 1614.050;  -52.000;    0.000
 883.97; 1619.400;  -40.000;    0.000
 884.54; 1562.450;  -12.000;    0.000
 885.10; 1548.400;   -5.000;    0.000
 885.66; 1571.450;  -27.000;    0.000
 886.23; 1535.400;   -7.000;    0.000
 886.79; 1548.950;  -39.000;    0.000
 887.36; 1547.750;  -17.000;    0.000
 887.92; 1520.350;  -33.000;    0.000
 888.48; 1528.800;  -11.000;    0.000
 889.05; 1520.900;  -70.000;    0.000
 889.61; 1509.050;  -57.000;    0.000
 890.17; 1490.850;  -91.000;    0.000
 890.74; 1480.400;  -36.000;    0.000
 891.30; 1482.700;  -14.000;    0.000
 891.86; 1527.200;  -46.000;    0.000
 892.43; 1511.400;   11.000;    0.000
 892.99; 1523.850;  -25.000;    0.000
 893.55; 1512.550;  -23.000;    0.000
 894.11; 1500.850;  -26.000;    0.000
 894.68; 1494.900;  -34.000;    0.000
 895.24; 1518.300;  -96.000;    0.000
 895.80; 1506.600;  -17.000;    0.000
 896.37; 1488.900;  -43.000;    0.000
 896.93; 1534.250;  -20.000;    0.000
 897.49; 1512.300;  -34.000;    0.000
 898.05; 1512.700;  -35.000;    0.000
 898.62; 1548.300;  -24.000;    0.000
 899.18; 1550.300;  -36.000;    0.000
 899.74; 1555.150;  -83.000;    0.000
 900.31; 1571.100;  -44.000;    0.000
 900.87; 1561.200;  -37.000;    0.000
 901.43; 1568.000;  -29.000;    0.000
 901.99; 1583.150;  -53.000;    0.000
 902.56; 1574.200;  -10.000;    0.000
 903.12; 1599.950;  -13.000;    0.000
 903.68; 1559.900;  -21.000;    0.000
 904.24; 1589.800;  -28.000;    0.000
 904.80; 1570.250;  -41.000;    0.000
 905.37; 1598.000;  -28.000;    0.000
 905.93; 1611.600;  -53.000;    0.000
 906.49; 1653.600;  -58.000;    0.000
 907.05; 1643.400;  -49.000;    0.000
 907.61; 1643.900;    6.000;    0.000
 908.18; 1665.500;  -55.000;    0.000
 908.74; 1641.550;  -82.000;    0.000
 909.30; 1656.100;   28.000;    0.000
 909.86; 1586.950;  -50.000;    0.000
 910.42; 1601.250;   26.000;    0.000
 910.99; 1595.300;  -19.000;    0.000
 911.55; 1587.050;  -46.000;    0.000
 912.11; 1563.600;  -25.000;    0.000
 912.67; 1553.050;  -28.000;    0.000
 913.23; 1573.350;  -58.000;    0.000
 913.79; 1536.400;    0.000;    0.000
 914.36; 1553.700;  -66.000;    0.000
 914.92; 1551.250;  -21.000;    0.000
 915.48; 1546.900;  -77.000;    0.000
 916.04; 1567.300;   34.000;    0.000
 916.60; 1538.150;   11.000;    0.000
 917.16; 1497.850;  -78.000;    0.000
 917.72; 1495.050;  -32.000;    0.000
 918.28; 1495.150;   -1.000;    0.000
 918.85; 1502.300;  -22.000;    0.000
 919.41; 1501.250;  -13.000;    0.000
 919.97; 1511.750;  -34.000;    0.000
 920.53; 1448.850;  -29.000;    0.000
 921.09; 1453.500;  -74.000;    0.000
 921.65; 1450.450;  -70.000;    0.000
 922.21; 1449.300;  -24.000;    0.000
 922.77; 1424.150;   16.000;    0.000
 923.33; 1428.050;  -16.000;    0.000
 923.89; 1385.750;  -24.000;    0.000
 924.45; 1382.400;   -4.000;    0.000
 925.01; 1388.300;  -89.000;    0.000
 925.58; 1399.050;  -15.000;    0.000
 926.14; 1434.350;  -19.000;    0.000
 926.70; 1421.300;  -45.000;    0.000
 927.26; 1398.550;  -51.000;    0.000
 927.82; 1395.950;   10.000;    0.000
 928.38; 1355.750;   -4.000;    0.000
 928.94; 1330.250;  -21.000;    0.000
 929.50; 1360.100;  -57.000;    0.000
 930.06; 1353.800;   19.000;    0.000
 930.62; 1322.650;  -62.000;    0.000
 931.18; 1322.700;  -59.000;    0.000
 931.74; 1294.150;   -9.000;    0.000
 932.30; 1276.550;   -6.000;    0.000
 932.86; 1296.500;  -23.000;    0.000
 933.42; 1283.500;  -58.000;    0.000
 933.98; 1318.250;  -72.000;    0.000
 934.54; 1323.900;  -68.000;    0.000
 935.10; 1327.800;  -34.000;    0.000
 935.66; 1295.850;  -29.000;    0.000
 936.22; 1307.200;  -48.000;    0.000
 936.78; 1276.100;    5.000;    0.000
 937.34; 1236.500;  -69.000;    0.000
 937.90; 1247.850;  -52.000;    0.000
 938.46; 1250.800;   -7.000;    0.000
 939.02; 1252.750;  -45.000;    0.000
 939.58; 1233.350;  -22.000;    0.000
 940.14; 1215.250;  -68.000;    0.000
 940.70; 1247.300;    5.000;    0.000
 941.25; 1229.550;  -23.000;    0.000
 941.81; 1242.400;    9.000;    0.000
 942.37; 1214.200;    6.000;    0.000
 942.93; 1204.550;  -13.000;    0.000
 943.49; 1193.850;    1.000;    0.000
 944.05; 1188.100;  -46.000;    0.000
 944.61; 1218.450;  -95.000;    0.000
 945.17; 1161.650;   26.000;    0.000
 945.73; 1163.600;   -2.000;    0.000
 946.29; 1183.150;  -54.000;    0.000
 946.85; 1174.450;   -6.000;    0.000
 947.40; 1162.250;  -20.000;    0.000
 947.96; 1156.750;  -54.000;    0.000
 948.52; 1151.150;  -28.000;    0.000
 949.08; 1152.450;   14.000;    0.000
 949.64; 1129.700;  -34.000;    0.000
 950.20; 1136.000;   -7.000;    0.000
 950.76; 1132.050;  -22.000;    0.000
 951.32; 1122.500;  -49.000;    0.000
 951.87; 1123.450;  -34.000;    0.000
 952.43; 1105.200;  -54.000;    0.000
 952.99; 1123.600;  -40.000;    0.000
 953.55; 1134.950;  -10.000;    0.000
 954.11; 1132.400;  -27.000;    0.000
 954.67; 1096.450;  -96.000;    0.000
 955.22; 1085.250;  -28.000;    0.000
 955.78; 1111.200;  -65.000;    0.000
 956.34; 1093.450;   -8.000;    0.000
 956.90; 1100.050;  -55.000;    0.000
 957.46; 1073.950;  -39.000;    0.000
 958.01; 1067.050;  -15.000;    0.000
 958.57; 1059.750;    9.000;    0.000
 959.13; 1084.550;  -19.000;    0.000
 959.69; 1064.000;  -14.000;    0.000
 960.25; 1080.650;  -35.000;    0.000
 960.80; 1077.850;  -58.000;    0.000
 961.36; 1079.050;    3.000;    0.000
 961.92; 1083.600;  -28.000;    0.000
 962.48; 1083.500;  -32.000;    0.000
 963.03; 1059.050;    8.000;    0.000
 963.59; 1083.850;   -4.000;    0.000
 964.15; 1110.500;   -7.000;    0.000
 964.71; 1071.700;  -47.000;    0.000
 965.26; 1067.450;  -43.000;    0.000
 965.82; 1046.750;  -51.000;    0.000
 966.38; 1033.850;  -25.000;    0.000
 966.94; 1048.700;  -35.000;    0.000
 967.49; 1037.150;  -14.000;    0.000
 968.05; 1029.350;  -51.000;    0.000
 968.61; 1019.250;   -4.000;    0.000
 969.17; 1044.850;  -20.000;    0.000
 969.72; 1041.700;   -4.000;    0.000
 970.28; 1022.950;  -40.000;    0.000
 970.84; 1020.950;  -38.000;    0.000
 971.39; 1014.150;  -85.000;    0.000
 971.95;  989.800;  -55.000;    0.000
 972.51;  992.750;  -61.000;    0.000
 973.06; 1013.550;  -59.000;    0.000
 973.62; 1034.300;  -40.000;    0.000
 974.18;  994.500;   -9.000;    0.000
 974.73;  960.400;  -61.000;    0.000
 975.29;  981.450;  -63.000;    0.000
 975.85;  978.500;  -19.000;    0.000
 976.40;  957.350;   -3.000;    0.000
 976.96;  927.500;  -16.000;    0.000
 977.52;  932.350;  -39.000;    0.000
 978.07;  932.600;  -49.000;    0.000
 978.63;  923.000;  -20.000;    0.000
 979.19;  917.500;  -69.000;    0.000
 979.74;  903.150;    1.000;    0.000
 980.30;  907.750;  -63.000;    0.000
 980.85;  914.300;  -21.000;    0.000
 981.41;  899.250;  -21.000;    0.000
 981.97;  885.300;  -45.000;    0.000
 982.52;  868.150;  -31.000;    0.000
 983.08;  883.450;  -54.000;    0.000
 983.63;  857.200;  -66.000;    0.000
 984.19;  872.100;    9.000;    0.000
 984.75;  879.750;   -8.000;    0.000
 985.30;  857.750;  -56.000;    0.000
 985.86;  902.750;  -58.000;    0.000
 986.41;  893.800;  -38.000;    0.000
 986.97;  869.200;  -47.000;    0.000
 987.52;  852.000;  -71.000;    0.000
 988.08;  847.550;   13.000;    0.000
 988.64;  843.500;  -56.000;    0.000
 989.19;  815.400;  -46.000;    0.000
 989.75;  831.300;  -26.000;    0.000
 990.30;  795.900;  -43.000;    0.000
 990.86;  797.450;  -36.000;    0.000
 991.41;  792.400;  -87.000;    0.000
 991.97;  789.900;  -44.000;    0.000
 992.52;  787.700;  -24.000;    0.000
 993.08;  750.550;  -50.000;    0.000
 993.63;  757.850;  -59.000;    0.000
 994.19;  765.400;  -80.000;    0.000
 994.74;  742.500;   -7.000;    0.000
 995.30;  749.750;   -1.000;    0.000
 995.85;  727.050;  -66.000;    0.000
 996.41;  715.700;  -10.000;    0.000
 996.96;  726.050; -101.000;    0.000
 997.52;  732.800;  -10.000;    0.000
 998.07;  700.000;  -48.000;    0.000
 998.63;  689.400;  -58.000;    0.000
 999.18;  700.000;  -20.000;    0.000
 999.74;  681.600;  -33.000;    0.000
1000.29;  659.100;  -10.000;    0.000
1000.85;  653.450;  -37.000;    0.000
1001.40;  659.150;  -68.000;    0.000
1001.96;  641.900;  -51.000;    0.000
1002.51;  625.350;   48.000;    0.000
1003.06;  617.800;  -14.000;    0.000
1003.62;  631.350;  -50.000;    0.000
1004.17;  623.250;  -61.000;    0.000
1004.73;  628.500; -107.000;    0.000
1005.28;  641.800;    1.000;    0.000
1005.83;  635.000;  -36.000;    0.000
1006.39;  632.550;   -8.000;    0.000
1006.94;  645.600;  -14.000;    0.000
1007.50;  618.650;  -84.000;    0.000
1008.05;  642.100;  -33.000;    0.000
1008.60;  662.950;  -43.000;    0.000
1009.16;  653.650;  -77.000;    0.000
1009.71;  649.400;  -60.000;    0.000
1010.27;  644.850;  -13.000;    0.000
1010.82;  653.400;   19.000;    0.000
1011.37;  671.050;  -57.000;    0.000
1011.93;  659.950;   -9.000;    0.000
1012.48;  658.050;   21.000;    0.000
1013.03;  641.500;  -33.000;    0.000
1013.59;  634.200;  -48.000;    0.000
1014.14;  650.450;  -25.000;    0.000
1014.69;  635.350;  -52.000;    0.000
1015.25;  660.800;  -26.000;    0.000
1015.80;  641.600;  -12.000;    0.000
1016.35;  614.650;  -25.000;    0.000
1016.91;  619.050;  -18.000;    0.000
1017.46;  603.900;  -21.000;    0.000
1018.01;  605.100;  -44.000;    0.000
1018.57;  590.900;  -41.000;    0.000
1019.12;  572.150;  -28.000;    0.000
1019.67;  570.500;   -4.000;    0.000
1020.23;  546.800;  -14.000;    0.000
1020.78;  548.000;  -45.000;    0.000
1021.33;  530.850;  -10.000;    0.000
1021.88;  551.450;  -43.000;    0.000
1022.44;  527.950;  -87.000;    0.000
1022.99;  522.300;  -50.000;    0.000
1023.54;  511.000;   -6.000;    0.000
1024.09;  509.050;  -50.000;    0.000
1024.65;  486.700;  -35.000;    0.000
1025.20;  470.600;  -26.000;    0.000
1025.75;  509.600;  -16.000;    0.000
1026.30;  474.250;   12.000;    0.000
1026.86;  446.900;  -12.000;    0.000
1027.41;  455.150;  -42.000;    0.000
1027.96;  446.400;  -16.000;    0.000
1028.51;  441.350;  -49.000;    0.000
1029.07;  434.400;  -19.000;    0.000
1029.62;  413.650;  -81.000;    0.000
1030.17;  408.200;  -24.000;    0.000
1030.72;  426.400;  -27.000;    0.000
1031.27;  406.800;  -64.000;    0.000
1031.83;  390.950;   36.000;    0.000
1032.38;  391.650;  -22.000;    0.000
1032.93;  379.900;  -49.000;    0.000
1033.48;  378.400;  -25.000;    0.000
1034.03;  384.800;   -5.000;    0.000
1034.58;  377.100;  -35.000;    0.000
1035.14;  382.500;   -4.000;    0.000
1035.69;  365.900;  -88.000;    0.000
1036.24;  360.750;  -27.000;    0.000
1036.79;  358.550;  -46.000;    0.000
1037.34;  359.850;  -48.000;    0.000
1037.89;  341.400;  -37.000;    0.000
1038.45;  326.300;   -5.000;    0.000
1039.00;  328.250;  -49.000;    0.000
1039.55;  331.200;   10.000;    0.000
1040.10;  328.800;  -23.000;    0.000
1040.65;  311.400;  -17.000;    0.000
1041.20;  317.800;  -18.000;    0.000
1041.75;  286.900;   11.000;    0.000
1042.30;  299.400;  -48.000;    0.000
1042.85;  280.950; -114.000;    0.000
1043.41;  296.700;  -76.000;    0.000
1043.96;  276.700;  -52.000;    0.000
1044.51;  293.400;    8.000;    0.000
1045.06;  269.250;   19.000;    0.000
1045.61;  275.500; -102.000;    0.000
1046.16;  285.000;  -23.000;    0.000
1046.71;  266.350;    9.000;    0.000
1047.26;  281.950;  -39.000;    0.000
1047.81;  260.550;  -40.000;    0.000
1048.36;  248.500;  -54.000;    0.000
1048.91;  313.200;  -33.000;    0.000
1049.46;  263.200;  -40.000;    0.000
1050.01;  234.200;   -7.000;    0.000
1050.56;  220.200;  -75.000;    0.000
1051.11;  233.650;  -38.000;    0.000
1051.66;  222.450;  -89.000;    0.000
1052.21;  232.550;  -31.000;    0.000
1052.76;  221.000;  -78.000;    0.000
1053.31;  220.250;  -75.000;    0.000
1053.86;  205.350;  -16.000;    0.000
1054.41;  224.650;  -88.000;    0.000
1054.96;  211.700;  -40.000;    0.000
1055.51;  207.750;  -24.000;    0.000
1056.06;  185.250;  -40.000;    0.000
1056.61;  202.300;  -13.000;    0.000
1057.16;  198.900;  -85.000;    0.000
1057.71;  187.850;  -17.000;    0.000
1058.26;  185.050;  -31.000;    0.000
1058.81;  186.050;  -43.000;    0.000
1059.36;  163.600;  -21.000;    0.000
1059.91;  168.000;  -54.000;    0.000
1060.46;  170.100;  -39.000;    0.000
1061.01;  159.500;  -55.000;    0.000
1061.56;  157.200;  -36.000;    0.000
1062.11;  169.450;   -6.000;    0.000
1062.66;  150.350;  -28.000;    0.000
1063.21;  149.200;  -85.000;    0.000
1063.76;  151.200;  -84.000;    0.000
1064.31;  165.000; -113.000;    0.000
1064.86;  133.900;  -36.000;    0.000
1065.40;  147.450;  -79.000;    0.000
1065.95;  129.950;  -49.000;    0.000
1066.50;  136.900;  -45.000;    0.000
1067.05;  138.200;  -53.000;    0.000
1067.60;  139.050;  -39.000;    0.000
1068.15;  125.650;  -20.000;    0.000
1068.70;  122.550;  -14.000;    0.000
1069.25;  125.100;  -37.000;    0.000
1069.79;  132.450;  -42.000;    0.000
1070.34;  103.100;  -52.000;    0.000
1070.89;  130.200;  -51.000;    0.000
1071.44;  121.600;   22.000;    0.000
1071.99;  125.500;  -20.000;    0.000
1072.54;  112.700;  -46.000;    0.000
1073.09;  111.650;  -79.000;    0.000
1073.63;  117.150;  -82.000;    0.000
1074.18;  124.700;  -24.000;    0.000
1074.73;  114.500;  -37.000;    0.000
1075.28;  122.750;  -98.000;    0.000
1075.83;  105.800;  -46.000;    0.000
1076.38;  104.000;  -94.000;    0.000
1076.92;  104.750;  -19.000;    0.000
1077.47;   99.500;  -16.000;    0.000
1078.02;   86.400;  -34.000;    0.000
1078.57;   88.150;  -70.000;    0.000
1079.11;   97.200;  -44.000;    0.000
1079.66;   89.950;    1.000;    0.000
1080.21;   80.100;    5.000;    0.000
1080.76;   93.800;  -14.000;    0.000
1081.31;   87.000;  -88.000;    0.000
1081.85;   83.450;  -33.000;    0.000
1082.40;  100.900;    6.000;    0.000
1082.95;   81.650;  -31.000;    0.000
1083.50;   78.200;  -36.000;    0.000
1084.04;   71.350;  -43.000;    0.000
1084.59;   81.250;   -3.000;    0.000
1085.14;   76.800;  -50.000;    0.000
1085.69;   77.200;  -50.000;    0.000
1086.23;   67.050;  -45.000;    0.000
1086.78;   79.700;  -36.000;    0.000
1087.33;   81.650;  -51.000;    0.000
1087.87;   65.250;  -38.000;    0.000
1088.42;   79.450;  -22.000;    0.000
1088.97;   59.150;  -61.000;    0.000
1089.52;   68.850;   -5.000;    0.000
1090.06;   61.850;  -12.000;    0.000
1090.61;   60.150;  -60.000;    0.000
1091.16;   69.950;  -44.000;    0.000
1091.70;   68.600;  -42.000;    0.000
1092.25;   60.000;   11.000;    0.000
1092.80;   51.350;  -45.000;    0.000
1093.34;   57.700;  -49.000;    0.000
1093.89;   58.300;  -67.000;    0.000
1094.44;   59.750;  -24.000;    0.000
1094.98;   56.400;  -28.000;    0.000
1095.53;   52.300;  -27.000;    0.000
1096.07;   49.400;  -30.000;    0.000
1096.62;   43.450;  -10.000;    0.000
1097.17;   41.850;  -65.000;    0.000
1097.71;   46.800;  -39.000;    0.000
1098.26;   44.350;  -79.000;    0.000
1098.81;   54.850;  -50.000;    0.000
1099.35;   33.100;  -10.000;    0.000
1099.90;   53.750;  -45.000;    0.000
1100.44;   45.900;  -73.000;    0.000

