
Integration time [ms]:   1.050
Averaging Nr. [scans]: 20
Smoothing Nr. [pixels]: 0
Data measured with spectrometer [name]: 1701237U1
Wave   ;Sample   ;Dark     ;Reference;Scope
[nm]   ;[counts] ;[counts] ;[counts] 

 173.88;   -8.550;  -37.000;    0.000
 174.48;   26.100;    0.000;    0.000
 175.09;   10.600;   31.000;    0.000
 175.69;   20.850;   19.000;    0.000
 176.30;   24.400;  -11.000;    0.000
 176.90;    6.400;  -32.000;    0.000
 177.51;    1.900;   35.000;    0.000
 178.11;   16.800;  -38.000;    0.000
 178.72;   12.350;   11.000;    0.000
 179.32;   20.550;   29.000;    0.000
 179.93;    3.550;   -9.000;    0.000
 180.54;   16.900;   18.000;    0.000
 181.14;   10.000;  -26.000;    0.000
 181.75;   24.800;   40.000;    0.000
 182.35;   15.400;   58.000;    0.000
 182.96;   11.500;   24.000;    0.000
 183.56;   11.100;  -20.000;    0.000
 184.17;   24.350;  -10.000;    0.000
 184.77;   10.900;   25.000;    0.000
 185.38;   27.050;  -52.000;    0.000
 185.98;   11.100;    9.000;    0.000
 186.59;   16.700;   39.000;    0.000
 187.19;    5.800;   22.000;    0.000
 187.80;   18.000;  -11.000;    0.000
 188.40;    5.450;   15.000;    0.000
 189.01;   22.750;  -49.000;    0.000
 189.61;   13.850;  -11.000;    0.000
 190.21;   16.350;  -24.000;    0.000
 190.82;    4.300;   22.000;    0.000
 191.42;   14.450;  -20.000;    0.000
 192.03;   11.800;  -29.000;    0.000
 192.63;   27.200;   29.000;    0.000
 193.24;    5.600;   13.000;    0.000
 193.84;    4.000;   14.000;    0.000
 194.45;   15.600;  -15.000;    0.000
 195.05;   31.000;   -8.000;    0.000
 195.66;   10.850;   40.000;    0.000
 196.26;   11.950;  -41.000;    0.000
 196.87;   11.250;    4.000;    0.000
 197.47;   18.500;   -7.000;    0.000
 198.07;    6.550;    9.000;    0.000
 198.68;   11.000;   25.000;    0.000
 199.28;   12.400;  -37.000;    0.000
 199.89;   19.150;  -27.000;    0.000
 200.49;   18.500;   62.000;    0.000
 201.10;   11.550;   -9.000;    0.000
 201.70;   17.700;    2.000;    0.000
 202.31;   20.800;  -32.000;    0.000
 202.91;    6.000;  -14.000;    0.000
 203.51;   11.650;  -24.000;    0.000
 204.12;    3.500;  -21.000;    0.000
 204.72;   21.150;  -34.000;    0.000
 205.33;    4.700;   55.000;    0.000
 205.93;    8.950;    6.000;    0.000
 206.53;    7.300;    9.000;    0.000
 207.14;   22.150;   18.000;    0.000
 207.74;    9.350;  -10.000;    0.000
 208.35;   23.250;   46.000;    0.000
 208.95;    8.500;  -42.000;    0.000
 209.55;   18.000;   25.000;    0.000
 210.16;   -1.000;  -20.000;    0.000
 210.76;   11.400;  -40.000;    0.000
 211.37;    9.550;  -28.000;    0.000
 211.97;   24.300;   -4.000;    0.000
 212.57;    5.650;  -28.000;    0.000
 213.18;   25.850;   27.000;    0.000
 213.78;    5.250;  -11.000;    0.000
 214.38;   31.200;  -33.000;    0.000
 214.99;   10.100;   49.000;    0.000
 215.59;    9.850;  -17.000;    0.000
 216.20;   11.700;   -1.000;    0.000
 216.80;   19.200;  -13.000;    0.000
 217.40;    8.750;  -57.000;    0.000
 218.01;   30.000;  -23.000;    0.000
 218.61;    8.400;    3.000;    0.000
 219.21;   19.200;    6.000;    0.000
 219.82;    9.000;  -65.000;    0.000
 220.42;   11.900;   42.000;    0.000
 221.02;   15.250;  -20.000;    0.000
 221.63;    6.000;  -12.000;    0.000
 222.23;   22.000;   -8.000;    0.000
 222.83;   24.300;   -6.000;    0.000
 223.44;   13.400;  -14.000;    0.000
 224.04;   19.450;   15.000;    0.000
 224.64;    9.900;    3.000;    0.000
 225.25;   11.950;   41.000;    0.000
 225.85;   16.400;  -48.000;    0.000
 226.45;   12.150;   38.000;    0.000
 227.06;   15.800;  -19.000;    0.000
 227.66;   12.000;   58.000;    0.000
 228.26;   12.300;  -16.000;    0.000
 228.87;   27.950;  -11.000;    0.000
 229.47;   18.450;   -2.000;    0.000
 230.07;   23.750;    1.000;    0.000
 230.68;    3.850;  -14.000;    0.000
 231.28;   12.250;   -7.000;    0.000
 231.88;    9.550;   18.000;    0.000
 232.48;   28.600;  -34.000;    0.000
 233.09;   10.950;    4.000;    0.000
 233.69;   19.950;  -22.000;    0.000
 234.29;   16.900;  -10.000;    0.000
 234.90;   14.750;   -8.000;    0.000
 235.50;   24.950;   30.000;    0.000
 236.10;   20.900;   -9.000;    0.000
 236.70;    2.550;   -6.000;    0.000
 237.31;    6.300;  -22.000;    0.000
 237.91;   -4.350;   17.000;    0.000
 238.51;   12.900;  -26.000;    0.000
 239.11;   10.800;    9.000;    0.000
 239.72;   24.000;    6.000;    0.000
 240.32;    4.600;   42.000;    0.000
 240.92;    7.750;   11.000;    0.000
 241.53;    4.500;   -6.000;    0.000
 242.13;   16.700;   43.000;    0.000
 242.73;   21.900;   -8.000;    0.000
 243.33;   13.500;   12.000;    0.000
 243.93;    2.150;  -11.000;    0.000
 244.54;   18.550;   14.000;    0.000
 245.14;   16.250;  -71.000;    0.000
 245.74;   13.400;  -39.000;    0.000
 246.34;   18.350;  -33.000;    0.000
 246.95;   10.550;   37.000;    0.000
 247.55;    8.650;  -44.000;    0.000
 248.15;   17.350;  -23.000;    0.000
 248.75;   14.050;    0.000;    0.000
 249.36;    5.650;   12.000;    0.000
 249.96;   17.450;   -6.000;    0.000
 250.56;   15.400;   17.000;    0.000
 251.16;   16.700;  -40.000;    0.000
 251.76;   16.200;    9.000;    0.000
 252.37;   10.050;   39.000;    0.000
 252.97;   32.700;   24.000;    0.000
 253.57;   14.450;   -4.000;    0.000
 254.17;   14.500;  -63.000;    0.000
 254.77;   10.050;   12.000;    0.000
 255.38;   14.150;  -20.000;    0.000
 255.98;   11.500;   -7.000;    0.000
 256.58;   32.450;    3.000;    0.000
 257.18;    5.200;  -12.000;    0.000
 257.78;   24.000;  -29.000;    0.000
 258.38;    9.800;   45.000;    0.000
 258.99;   22.500;  -49.000;    0.000
 259.59;   11.350;    9.000;    0.000
 260.19;   16.850;   -9.000;    0.000
 260.79;   11.800;  -57.000;    0.000
 261.39;   17.950;  -39.000;    0.000
 261.99;   17.750;  -25.000;    0.000
 262.60;   21.050;  -15.000;    0.000
 263.20;   13.750;   -7.000;    0.000
 263.80;   20.700;  -12.000;    0.000
 264.40;    9.200;    4.000;    0.000
 265.00;   21.100;  -70.000;    0.000
 265.60;   15.500;  -64.000;    0.000
 266.20;   12.850;    1.000;    0.000
 266.81;   15.300;  -25.000;    0.000
 267.41;   10.400;  -31.000;    0.000
 268.01;   16.100;   16.000;    0.000
 268.61;   13.050;   17.000;    0.000
 269.21;   -2.850;   10.000;    0.000
 269.81;   22.850;   22.000;    0.000
 270.41;    6.200;  -64.000;    0.000
 271.01;   18.650;    9.000;    0.000
 271.62;   14.600;  -28.000;    0.000
 272.22;   14.950;  -18.000;    0.000
 272.82;    4.900;   -4.000;    0.000
 273.42;   25.800;   17.000;    0.000
 274.02;    5.250;    6.000;    0.000
 274.62;   25.250;  -37.000;    0.000
 275.22;   14.150;  -14.000;    0.000
 275.82;   25.400;   17.000;    0.000
 276.42;    5.550;   -6.000;    0.000
 277.02;   17.500;   32.000;    0.000
 277.63;   10.100;  -17.000;    0.000
 278.23;   20.300;   12.000;    0.000
 278.83;    9.850;  -16.000;    0.000
 279.43;   22.300;  -24.000;    0.000
 280.03;   10.850;    9.000;    0.000
 280.63;   33.050;   28.000;    0.000
 281.23;   -0.300;   -5.000;    0.000
 281.83;   29.300;   25.000;    0.000
 282.43;    2.400;   53.000;    0.000
 283.03;   21.600;  -29.000;    0.000
 283.63;   12.300;  -33.000;    0.000
 284.23;   18.850;  -34.000;    0.000
 284.83;    7.800;   -6.000;    0.000
 285.43;   18.300;  -37.000;    0.000
 286.03;   13.200;  -21.000;    0.000
 286.63;   21.850;  -28.000;    0.000
 287.23;   19.050;   44.000;    0.000
 287.84;    9.100;   14.000;    0.000
 288.44;    4.800;  -19.000;    0.000
 289.04;   12.500;  -14.000;    0.000
 289.64;   -4.350;    7.000;    0.000
 290.24;   30.500;    3.000;    0.000
 290.84;   13.250;  -68.000;    0.000
 291.44;   20.800;    3.000;    0.000
 292.04;    9.200;  -64.000;    0.000
 292.64;   20.450;    0.000;    0.000
 293.24;    4.200;   -7.000;    0.000
 293.84;   19.150;   -3.000;    0.000
 294.44;    8.150;  -25.000;    0.000
 295.04;   18.400;   43.000;    0.000
 295.64;   13.900;   13.000;    0.000
 296.24;   23.050;   11.000;    0.000
 296.84;    7.250;  -20.000;    0.000
 297.44;   11.400;   24.000;    0.000
 298.04;   10.350;  -17.000;    0.000
 298.64;   22.650;  -25.000;    0.000
 299.24;   14.900;   -7.000;    0.000
 299.84;    9.600;  -49.000;    0.000
 300.44;    6.100;  -31.000;    0.000
 301.04;   24.650;  -18.000;    0.000
 301.64;   15.500;  -27.000;    0.000
 302.24;   10.500;   11.000;    0.000
 302.83;    6.400;   29.000;    0.000
 303.43;   17.850;   -3.000;    0.000
 304.03;   14.600;   18.000;    0.000
 304.63;   30.100;   15.000;    0.000
 305.23;    8.550;   -7.000;    0.000
 305.83;   21.550;  -51.000;    0.000
 306.43;   11.750;  -20.000;    0.000
 307.03;   30.500;  -44.000;    0.000
 307.63;   15.550;  -53.000;    0.000
 308.23;    7.450;    1.000;    0.000
 308.83;   14.900;  -18.000;    0.000
 309.43;   25.750;  -25.000;    0.000
 310.03;   14.400;  -47.000;    0.000
 310.63;   17.550;  -38.000;    0.000
 311.23;   17.950;   10.000;    0.000
 311.83;   23.950;   10.000;    0.000
 312.43;   18.050;  -27.000;    0.000
 313.02;   15.000;  -25.000;    0.000
 313.62;    4.900;   12.000;    0.000
 314.22;   21.000;   -8.000;    0.000
 314.82;   14.150;  -16.000;    0.000
 315.42;   19.850;  -11.000;    0.000
 316.02;   18.100;   23.000;    0.000
 316.62;   20.500;  -17.000;    0.000
 317.22;   23.350;  -41.000;    0.000
 317.82;   34.550;  -19.000;    0.000
 318.42;   22.850;  -10.000;    0.000
 319.01;   28.900;    2.000;    0.000
 319.61;    9.000;   -7.000;    0.000
 320.21;   31.100;    6.000;    0.000
 320.81;   23.350;    8.000;    0.000
 321.41;   24.550;   -4.000;    0.000
 322.01;   17.550;  -22.000;    0.000
 322.61;   30.250;  -37.000;    0.000
 323.21;   16.100;  -10.000;    0.000
 323.80;   33.200;  -23.000;    0.000
 324.40;   20.450;    7.000;    0.000
 325.00;   29.700;   16.000;    0.000
 325.60;   36.850;  -45.000;    0.000
 326.20;   28.800;   -8.000;    0.000
 326.80;   31.600;  -22.000;    0.000
 327.40;   43.400;  -26.000;    0.000
 327.99;   23.700;  -27.000;    0.000
 328.59;   30.000;  -12.000;    0.000
 329.19;   39.850;  -41.000;    0.000
 329.79;   36.100;  -26.000;    0.000
 330.39;   31.350;   -4.000;    0.000
 330.99;   39.100;   41.000;    0.000
 331.58;   39.800;  -45.000;    0.000
 332.18;   51.000;  -26.000;    0.000
 332.78;   40.800;  -26.000;    0.000
 333.38;   58.300;  -15.000;    0.000
 333.98;   48.100;   -6.000;    0.000
 334.57;   65.400;  -38.000;    0.000
 335.17;   56.200;  -28.000;    0.000
 335.77;   65.150;   10.000;    0.000
 336.37;   56.300;  -30.000;    0.000
 336.97;   62.300;  -22.000;    0.000
 337.56;   59.050;   14.000;    0.000
 338.16;   71.550;   -9.000;    0.000
 338.76;   67.500;  -48.000;    0.000
 339.36;   68.600;   24.000;    0.000
 339.96;   56.850;  -34.000;    0.000
 340.55;   54.500;  -14.000;    0.000
 341.15;   57.950;   -3.000;    0.000
 341.75;   58.250;    3.000;    0.000
 342.35;   59.500;   21.000;    0.000
 342.94;   63.550;  -36.000;    0.000
 343.54;   66.600;  -32.000;    0.000
 344.14;   62.300;   13.000;    0.000
 344.74;   57.850;   17.000;    0.000
 345.33;   74.600;   -5.000;    0.000
 345.93;   49.850;   13.000;    0.000
 346.53;   62.450;   17.000;    0.000
 347.13;   57.150;   -8.000;    0.000
 347.72;   58.550;  -35.000;    0.000
 348.32;   58.050;    3.000;    0.000
 348.92;   68.200;  -35.000;    0.000
 349.52;   56.850;    8.000;    0.000
 350.11;   55.950;  -61.000;    0.000
 350.71;   51.750;  -20.000;    0.000
 351.31;   67.300;   -8.000;    0.000
 351.91;   63.950;  -42.000;    0.000
 352.50;   73.300;  -13.000;    0.000
 353.10;   56.150;  -13.000;    0.000
 353.70;   73.250;   31.000;    0.000
 354.29;   60.700;  -19.000;    0.000
 354.89;   60.150;  -12.000;    0.000
 355.49;   64.850;   59.000;    0.000
 356.09;   54.750;  -42.000;    0.000
 356.68;   68.100;    5.000;    0.000
 357.28;   67.950;  -33.000;    0.000
 357.88;   66.950;    5.000;    0.000
 358.47;   67.550;   14.000;    0.000
 359.07;   66.900;  -10.000;    0.000
 359.67;   74.150;  -45.000;    0.000
 360.26;   44.700;  -55.000;    0.000
 360.86;   73.450;    7.000;    0.000
 361.46;   56.650;  -52.000;    0.000
 362.05;   74.200;   -8.000;    0.000
 362.65;   72.950;  -13.000;    0.000
 363.25;   77.450;    3.000;    0.000
 363.84;   66.700;   -1.000;    0.000
 364.44;   93.900;  -19.000;    0.000
 365.04;   75.250;    3.000;    0.000
 365.63;   84.500;  -30.000;    0.000
 366.23;   70.800;   -9.000;    0.000
 366.83;   91.050;  -56.000;    0.000
 367.42;   78.050;   20.000;    0.000
 368.02;   83.050;  -16.000;    0.000
 368.62;   93.350;   -2.000;    0.000
 369.21;   84.400;  -28.000;    0.000
 369.81;   75.600;  -31.000;    0.000
 370.41;   95.650;  -21.000;    0.000
 371.00;   87.750;   -5.000;    0.000
 371.60;  108.800;  -36.000;    0.000
 372.19;   94.000;   -9.000;    0.000
 372.79;   91.150;  -23.000;    0.000
 373.39;   92.700;   47.000;    0.000
 373.98;  101.300;   32.000;    0.000
 374.58;  105.050;  -11.000;    0.000
 375.17;  112.350;    2.000;    0.000
 375.77;   96.750;   34.000;    0.000
 376.37;  113.950;  -18.000;    0.000
 376.96;  107.150;   -5.000;    0.000
 377.56;  120.400;   -7.000;    0.000
 378.15;  117.650;  -10.000;    0.000
 378.75;  119.650;  -10.000;    0.000
 379.35;  117.550;    4.000;    0.000
 379.94;  138.350;   -8.000;    0.000
 380.54;  125.700;  -18.000;    0.000
 381.13;  144.600;  -32.000;    0.000
 381.73;  122.450;  -42.000;    0.000
 382.32;  139.500;   13.000;    0.000
 382.92;  140.200;  -63.000;    0.000
 383.52;  151.950;  -32.000;    0.000
 384.11;  144.300;   31.000;    0.000
 384.71;  157.850;  -54.000;    0.000
 385.30;  155.100;    2.000;    0.000
 385.90;  164.250;  -67.000;    0.000
 386.49;  168.450;   11.000;    0.000
 387.09;  173.250;  -20.000;    0.000
 387.68;  159.350;  -10.000;    0.000
 388.28;  172.500;  -14.000;    0.000
 388.87;  167.400;   26.000;    0.000
 389.47;  184.650;  -44.000;    0.000
 390.07;  171.450;  -31.000;    0.000
 390.66;  203.700;  -42.000;    0.000
 391.26;  185.450;   -8.000;    0.000
 391.85;  202.450;   -6.000;    0.000
 392.45;  196.900;  -61.000;    0.000
 393.04;  191.650;  -21.000;    0.000
 393.64;  214.700;    0.000;    0.000
 394.23;  213.000;  -23.000;    0.000
 394.83;  202.450;   14.000;    0.000
 395.42;  215.950;  -26.000;    0.000
 396.02;  208.550;  -27.000;    0.000
 396.61;  235.350;  -81.000;    0.000
 397.21;  215.050;   24.000;    0.000
 397.80;  240.300;   64.000;    0.000
 398.40;  242.900;  -34.000;    0.000
 398.99;  252.500;    5.000;    0.000
 399.59;  242.550;  -27.000;    0.000
 400.18;  263.900;  -29.000;    0.000
 400.78;  243.850;   53.000;    0.000
 401.37;  261.700;    2.000;    0.000
 401.96;  266.000;  -10.000;    0.000
 402.56;  280.950;    3.000;    0.000
 403.15;  260.500;  -25.000;    0.000
 403.75;  285.550;  -23.000;    0.000
 404.34;  277.950;  -12.000;    0.000
 404.94;  300.050;    4.000;    0.000
 405.53;  299.850;   25.000;    0.000
 406.13;  316.950;  -22.000;    0.000
 406.72;  306.500;  -10.000;    0.000
 407.32;  320.750;  -31.000;    0.000
 407.91;  327.150;  -49.000;    0.000
 408.50;  342.500;  -21.000;    0.000
 409.10;  342.300;  -10.000;    0.000
 409.69;  357.550;   -4.000;    0.000
 410.29;  351.650;   -6.000;    0.000
 410.88;  384.000;   -6.000;    0.000
 411.47;  364.500;  -17.000;    0.000
 412.07;  383.000;  -24.000;    0.000
 412.66;  374.000;  -35.000;    0.000
 413.26;  419.350;   -4.000;    0.000
 413.85;  422.000;   -2.000;    0.000
 414.45;  431.700;  -44.000;    0.000
 415.04;  410.050;   11.000;    0.000
 415.63;  437.650;    1.000;    0.000
 416.23;  457.550;   29.000;    0.000
 416.82;  462.100;  -30.000;    0.000
 417.41;  441.550;   61.000;    0.000
 418.01;  476.000;    0.000;    0.000
 418.60;  457.850;  -30.000;    0.000
 419.20;  500.150;    3.000;    0.000
 419.79;  479.800;   58.000;    0.000
 420.38;  503.050;  -77.000;    0.000
 420.98;  487.250;  -23.000;    0.000
 421.57;  509.750;  -36.000;    0.000
 422.16;  495.000;  -11.000;    0.000
 422.76;  523.050;   12.000;    0.000
 423.35;  533.900;   11.000;    0.000
 423.94;  522.050;  -11.000;    0.000
 424.54;  556.200;    7.000;    0.000
 425.13;  584.400;  -33.000;    0.000
 425.73;  583.150;    7.000;    0.000
 426.32;  575.400;   28.000;    0.000
 426.91;  594.150;  -26.000;    0.000
 427.51;  607.950;    6.000;    0.000
 428.10;  593.450;   -9.000;    0.000
 428.69;  647.600;  -50.000;    0.000
 429.28;  644.000;  -19.000;    0.000
 429.88;  666.300;    6.000;    0.000
 430.47;  669.350;  -30.000;    0.000
 431.06;  675.600;    6.000;    0.000
 431.66;  694.500;    4.000;    0.000
 432.25;  730.150;  -31.000;    0.000
 432.84;  734.250;   -6.000;    0.000
 433.44;  739.550;  -36.000;    0.000
 434.03;  779.150;  -24.000;    0.000
 434.62;  770.700;  -17.000;    0.000
 435.22;  805.900;  -12.000;    0.000
 435.81;  828.550;   42.000;    0.000
 436.40;  835.200;   15.000;    0.000
 436.99;  846.700;  -45.000;    0.000
 437.59;  834.500;  -21.000;    0.000
 438.18;  881.950;   35.000;    0.000
 438.77;  877.450;   12.000;    0.000
 439.36;  874.950;  -36.000;    0.000
 439.96;  876.100;   19.000;    0.000
 440.55;  915.250;    2.000;    0.000
 441.14;  919.400;   -5.000;    0.000
 441.73;  919.800;    5.000;    0.000
 442.33;  929.700;   23.000;    0.000
 442.92;  945.600;  -10.000;    0.000
 443.51;  946.400;    0.000;    0.000
 444.10;  960.850;  -12.000;    0.000
 444.70;  980.150;  -46.000;    0.000
 445.29;  974.450;  -10.000;    0.000
 445.88;  999.100;   36.000;    0.000
 446.47;  997.000;    5.000;    0.000
 447.07; 1017.350;    7.000;    0.000
 447.66; 1028.200;   20.000;    0.000
 448.25; 1052.800;   -8.000;    0.000
 448.84; 1041.550;   15.000;    0.000
 449.43; 1046.950;   54.000;    0.000
 450.03; 1083.250;  -30.000;    0.000
 450.62; 1111.700;   29.000;    0.000
 451.21; 1134.700;   87.000;    0.000
 451.80; 1112.600;   25.000;    0.000
 452.39; 1150.000;   44.000;    0.000
 452.99; 1168.400;   54.000;    0.000
 453.58; 1212.050;   -5.000;    0.000
 454.17; 1214.000;   27.000;    0.000
 454.76; 1240.650;    1.000;    0.000
 455.35; 1275.800;  -19.000;    0.000
 455.95; 1290.050;   66.000;    0.000
 456.54; 1340.250;   11.000;    0.000
 457.13; 1394.200;    4.000;    0.000
 457.72; 1378.100;   40.000;    0.000
 458.31; 1423.900;   15.000;    0.000
 458.90; 1464.900;   12.000;    0.000
 459.50; 1493.600;   18.000;    0.000
 460.09; 1512.050;   45.000;    0.000
 460.68; 1540.250;   45.000;    0.000
 461.27; 1573.350;   39.000;    0.000
 461.86; 1634.150;    3.000;    0.000
 462.45; 1632.300;   10.000;    0.000
 463.04; 1656.700;   47.000;    0.000
 463.64; 1653.800;   48.000;    0.000
 464.23; 1738.800;    4.000;    0.000
 464.82; 1728.200;  -29.000;    0.000
 465.41; 1797.250;   34.000;    0.000
 466.00; 1777.650;  -25.000;    0.000
 466.59; 1810.400;    1.000;    0.000
 467.18; 1821.850;    3.000;    0.000
 467.77; 1804.900;  -18.000;    0.000
 468.37; 1865.900;  -44.000;    0.000
 468.96; 1920.300;  -14.000;    0.000
 469.55; 1905.550;   -4.000;    0.000
 470.14; 1970.250;   30.000;    0.000
 470.73; 1989.100;  -14.000;    0.000
 471.32; 2048.800;   11.000;    0.000
 471.91; 2073.350;   -4.000;    0.000
 472.50; 2121.350;  -17.000;    0.000
 473.09; 2132.400;    8.000;    0.000
 473.68; 2201.800;  -12.000;    0.000
 474.27; 2216.100;  -11.000;    0.000
 474.86; 2278.450;   -7.000;    0.000
 475.46; 2325.300;  -35.000;    0.000
 476.05; 2373.800;  -21.000;    0.000
 476.64; 2410.100;   21.000;    0.000
 477.23; 2450.050;   27.000;    0.000
 477.82; 2523.250;   30.000;    0.000
 478.41; 2569.100;  -57.000;    0.000
 479.00; 2632.900;  -17.000;    0.000
 479.59; 2687.250;  -75.000;    0.000
 480.18; 2766.950;  -23.000;    0.000
 480.77; 2795.100;   10.000;    0.000
 481.36; 2878.250;   39.000;    0.000
 481.95; 2924.600;  -22.000;    0.000
 482.54; 2998.500;   34.000;    0.000
 483.13; 3076.100;  -21.000;    0.000
 483.72; 3152.850;    4.000;    0.000
 484.31; 3213.300;   18.000;    0.000
 484.90; 3281.650;   14.000;    0.000
 485.49; 3347.000;   60.000;    0.000
 486.08; 3386.150;   41.000;    0.000
 486.67; 3473.200;   13.000;    0.000
 487.26; 3520.500;   28.000;    0.000
 487.85; 3635.600;    8.000;    0.000
 488.44; 3686.050;   25.000;    0.000
 489.03; 3755.350;  -47.000;    0.000
 489.62; 3798.900;    2.000;    0.000
 490.21; 3929.500;   33.000;    0.000
 490.80; 3968.300;   59.000;    0.000
 491.39; 4028.850;  -27.000;    0.000
 491.98; 4087.900;   38.000;    0.000
 492.57; 4161.850;   -6.000;    0.000
 493.16; 4209.700;   -4.000;    0.000
 493.75; 4269.950;   26.000;    0.000
 494.34; 4314.550;   24.000;    0.000
 494.93; 4403.400;   32.000;    0.000
 495.52; 4485.150;   12.000;    0.000
 496.11; 4471.100;   39.000;    0.000
 496.70; 4583.400;   66.000;    0.000
 497.29; 4626.050;   61.000;    0.000
 497.88; 4665.900;   59.000;    0.000
 498.47; 4645.100;  -23.000;    0.000
 499.06; 4716.100;   63.000;    0.000
 499.64; 4784.200;   14.000;    0.000
 500.23; 4798.950;   -8.000;    0.000
 500.82; 4851.500;   38.000;    0.000
 501.41; 4862.300;   50.000;    0.000
 502.00; 4880.300;   48.000;    0.000
 502.59; 4950.850;   50.000;    0.000
 503.18; 5000.200;   43.000;    0.000
 503.77; 5004.200;   24.000;    0.000
 504.36; 4978.200;   26.000;    0.000
 504.95; 5037.650;    9.000;    0.000
 505.54; 5072.400;   18.000;    0.000
 506.12; 5144.700;  -13.000;    0.000
 506.71; 5187.300;   49.000;    0.000
 507.30; 5216.850;    6.000;    0.000
 507.89; 5249.550;   61.000;    0.000
 508.48; 5306.850;   90.000;    0.000
 509.07; 5294.500;   42.000;    0.000
 509.66; 5395.750;   26.000;    0.000
 510.25; 5432.950;   60.000;    0.000
 510.84; 5519.850;   82.000;    0.000
 511.42; 5549.850;   66.000;    0.000
 512.01; 5608.700;   24.000;    0.000
 512.60; 5673.050;   18.000;    0.000
 513.19; 5670.900;   67.000;    0.000
 513.78; 5765.050;   -2.000;    0.000
 514.37; 5811.650;   64.000;    0.000
 514.95; 5859.600;   81.000;    0.000
 515.54; 5824.600;   28.000;    0.000
 516.13; 6006.950;   44.000;    0.000
 516.72; 6028.350;   72.000;    0.000
 517.31; 6060.200;   17.000;    0.000
 517.90; 6150.100;   72.000;    0.000
 518.48; 6161.650;   -1.000;    0.000
 519.07; 6310.750;   25.000;    0.000
 519.66; 6350.800;   55.000;    0.000
 520.25; 6352.100;   36.000;    0.000
 520.84; 6494.900;   21.000;    0.000
 521.43; 6596.600;   13.000;    0.000
 522.01; 6645.500;  -31.000;    0.000
 522.60; 6629.550;   81.000;    0.000
 523.19; 6802.850;   27.000;    0.000
 523.78; 6800.500;   52.000;    0.000
 524.37; 6947.450;   -3.000;    0.000
 524.95; 7058.500;   44.000;    0.000
 525.54; 7110.450;   37.000;    0.000
 526.13; 7190.300;   25.000;    0.000
 526.72; 7232.100;   27.000;    0.000
 527.30; 7293.850;   66.000;    0.000
 527.89; 7361.450;   37.000;    0.000
 528.48; 7460.900;   98.000;    0.000
 529.07; 7528.950;   33.000;    0.000
 529.65; 7550.900;   59.000;    0.000
 530.24; 7599.950;   -4.000;    0.000
 530.83; 7758.300;   16.000;    0.000
 531.42; 7764.850;   18.000;    0.000
 532.00; 7760.200;  -18.000;    0.000
 532.59; 7827.750;   70.000;    0.000
 533.18; 7898.500;   53.000;    0.000
 533.77; 7958.000;    3.000;    0.000
 534.35; 8029.250;   20.000;    0.000
 534.94; 8132.150;   36.000;    0.000
 535.53; 8124.200;   58.000;    0.000
 536.12; 8169.800;   13.000;    0.000
 536.70; 8167.950;   23.000;    0.000
 537.29; 8170.150;   83.000;    0.000
 537.88; 8199.200;   69.000;    0.000
 538.46; 8213.800;   28.000;    0.000
 539.05; 8233.200;   42.000;    0.000
 539.64; 8267.550;   66.000;    0.000
 540.23; 8254.350;   53.000;    0.000
 540.81; 8281.900;    3.000;    0.000
 541.40; 8251.250;   83.000;    0.000
 541.99; 8260.050;   62.000;    0.000
 542.57; 8337.000;   76.000;    0.000
 543.16; 8402.100;   83.000;    0.000
 543.75; 8436.500;   63.000;    0.000
 544.33; 8468.600;    2.000;    0.000
 544.92; 8530.400;   50.000;    0.000
 545.51; 8604.400;   75.000;    0.000
 546.09; 8590.700;   23.000;    0.000
 546.68; 8685.050;   36.000;    0.000
 547.27; 8658.750;   42.000;    0.000
 547.85; 8848.600;   30.000;    0.000
 548.44; 8939.150;   15.000;    0.000
 549.03; 9041.900;   88.000;    0.000
 549.61; 9112.350;   43.000;    0.000
 550.20; 9177.100;   36.000;    0.000
 550.78; 9295.050;   10.000;    0.000
 551.37; 9382.600;   60.000;    0.000
 551.96; 9449.200;   51.000;    0.000
 552.54; 9554.600;   36.000;    0.000
 553.13; 9723.000;   49.000;    0.000
 553.72; 9730.550;   24.000;    0.000
 554.30; 9815.650;    9.000;    0.000
 554.89; 9870.350;   80.000;    0.000
 555.47;10071.450;   25.000;    0.000
 556.06;10179.600;   27.000;    0.000
 556.65;10155.200;   81.000;    0.000
 557.23;10274.150;   19.000;    0.000
 557.82;10258.650;   31.000;    0.000
 558.40;10360.450;   27.000;    0.000
 558.99;10365.350;   57.000;    0.000
 559.58;10551.400;  -21.000;    0.000
 560.16;10590.300;   51.000;    0.000
 560.75;10702.950;   78.000;    0.000
 561.33;10808.750;   35.000;    0.000
 561.92;10843.300;   23.000;    0.000
 562.50;10838.100;   73.000;    0.000
 563.09;10994.100;   72.000;    0.000
 563.68;11099.200;   70.000;    0.000
 564.26;11244.700;   68.000;    0.000
 564.85;11260.950;   75.000;    0.000
 565.43;11355.000;   83.000;    0.000
 566.02;11358.350;   49.000;    0.000
 566.60;11554.600;   24.000;    0.000
 567.19;11566.100;   93.000;    0.000
 567.77;11704.100;   46.000;    0.000
 568.36;11746.250;    1.000;    0.000
 568.94;11809.800;   37.000;    0.000
 569.53;11977.800;   -3.000;    0.000
 570.11;11951.550;   -3.000;    0.000
 570.70;12016.400;   30.000;    0.000
 571.28;12093.100;    1.000;    0.000
 571.87;12172.650;  100.000;    0.000
 572.45;12275.500;   55.000;    0.000
 573.04;12432.900;   18.000;    0.000
 573.62;12481.850;   40.000;    0.000
 574.21;12507.600;   62.000;    0.000
 574.79;12549.850;   71.000;    0.000
 575.38;12528.000;   99.000;    0.000
 575.96;12622.900;   24.000;    0.000
 576.55;12686.250;   59.000;    0.000
 577.13;12757.750;   14.000;    0.000
 577.72;12771.900;  111.000;    0.000
 578.30;12829.950;   92.000;    0.000
 578.89;12865.100;   81.000;    0.000
 579.47;12955.900;   68.000;    0.000
 580.06;13026.550;   32.000;    0.000
 580.64;13083.400;   40.000;    0.000
 581.23;13302.600;   45.000;    0.000
 581.81;13255.850;    7.000;    0.000
 582.39;13196.550;   91.000;    0.000
 582.98;13311.550;   35.000;    0.000
 583.56;13273.250;   57.000;    0.000
 584.15;13288.950;   87.000;    0.000
 584.73;13431.950;   71.000;    0.000
 585.32;13467.750;   64.000;    0.000
 585.90;13405.850;   89.000;    0.000
 586.48;13421.250;   45.000;    0.000
 587.07;13475.050;   27.000;    0.000
 587.65;13472.900;   20.000;    0.000
 588.24;13405.100;   43.000;    0.000
 588.82;13390.350;   39.000;    0.000
 589.41;13392.350;   66.000;    0.000
 589.99;13336.600;   90.000;    0.000
 590.57;13500.350;   47.000;    0.000
 591.16;13576.250;   92.000;    0.000
 591.74;13566.900;   15.000;    0.000
 592.32;13459.550;   84.000;    0.000
 592.91;13509.450;   48.000;    0.000
 593.49;13481.650;   38.000;    0.000
 594.08;13660.950;   33.000;    0.000
 594.66;13690.750;   70.000;    0.000
 595.24;13670.300;  115.000;    0.000
 595.83;13580.900;   61.000;    0.000
 596.41;13579.050;   92.000;    0.000
 596.99;13522.650;    7.000;    0.000
 597.58;13650.850;   70.000;    0.000
 598.16;13626.950;   54.000;    0.000
 598.74;13668.850;   48.000;    0.000
 599.33;13691.150;   41.000;    0.000
 599.91;13845.150;   91.000;    0.000
 600.49;13905.900;   74.000;    0.000
 601.08;13909.400;   44.000;    0.000
 601.66;13861.150;   23.000;    0.000
 602.24;13844.700;   74.000;    0.000
 602.83;13950.450;   86.000;    0.000
 603.41;13922.950;   66.000;    0.000
 603.99;13965.550;   11.000;    0.000
 604.58;14068.250;   33.000;    0.000
 605.16;14138.650;  100.000;    0.000
 605.74;14129.150;   64.000;    0.000
 606.33;14313.200;   22.000;    0.000
 606.91;14313.550;   13.000;    0.000
 607.49;14345.050;   23.000;    0.000
 608.07;14358.700;   29.000;    0.000
 608.66;14276.800;   83.000;    0.000
 609.24;14272.750;   30.000;    0.000
 609.82;14437.400;   47.000;    0.000
 610.41;14338.700;   45.000;    0.000
 610.99;14340.850;   51.000;    0.000
 611.57;14312.150;   -7.000;    0.000
 612.15;14308.750;   58.000;    0.000
 612.74;14213.350;   29.000;    0.000
 613.32;14104.200;   55.000;    0.000
 613.90;14019.600;   31.000;    0.000
 614.48;13958.250;   51.000;    0.000
 615.07;13676.650;   36.000;    0.000
 615.65;13667.300;   75.000;    0.000
 616.23;13535.350;   63.000;    0.000
 616.81;13401.700;   44.000;    0.000
 617.40;13476.750;   47.000;    0.000
 617.98;13617.550;   -5.000;    0.000
 618.56;13983.250;  -11.000;    0.000
 619.14;14447.100;   52.000;    0.000
 619.72;14411.850;    1.000;    0.000
 620.31;14487.350;   42.000;    0.000
 620.89;14723.950;   75.000;    0.000
 621.47;14833.800;   57.000;    0.000
 622.05;15010.750;   71.000;    0.000
 622.63;15147.250;   49.000;    0.000
 623.22;15281.350;   84.000;    0.000
 623.80;15138.650;   72.000;    0.000
 624.38;15266.800;  -20.000;    0.000
 624.96;15231.600;   64.000;    0.000
 625.54;15289.550;   52.000;    0.000
 626.13;15212.500;   25.000;    0.000
 626.71;15227.300;  -23.000;    0.000
 627.29;15294.650;    9.000;    0.000
 627.87;15212.800;   53.000;    0.000
 628.45;15111.950;   35.000;    0.000
 629.03;15358.650;   42.000;    0.000
 629.62;15417.400;  -35.000;    0.000
 630.20;15493.400;   62.000;    0.000
 630.78;15552.950;   35.000;    0.000
 631.36;15489.400;   17.000;    0.000
 631.94;15560.000;    8.000;    0.000
 632.52;15499.750;   32.000;    0.000
 633.10;15609.850;   56.000;    0.000
 633.68;15665.000;   47.000;    0.000
 634.27;15705.500;   27.000;    0.000
 634.85;15805.650;    1.000;    0.000
 635.43;15867.250;    5.000;    0.000
 636.01;15683.900;   23.000;    0.000
 636.59;15722.850;   -8.000;    0.000
 637.17;15748.000;   39.000;    0.000
 637.75;15624.600;   41.000;    0.000
 638.33;15686.450;    0.000;    0.000
 638.91;15794.550;    4.000;    0.000
 639.50;15732.450;   13.000;    0.000
 640.08;15657.250;   60.000;    0.000
 640.66;15428.150;   18.000;    0.000
 641.24;15561.600;   13.000;    0.000
 641.82;15563.750;   17.000;    0.000
 642.40;15530.250;   -5.000;    0.000
 642.98;15629.500;   35.000;    0.000
 643.56;15489.050;  -28.000;    0.000
 644.14;15388.950;   30.000;    0.000
 644.72;15547.650;    7.000;    0.000
 645.30;15576.650;   33.000;    0.000
 645.88;15638.200;   26.000;    0.000
 646.46;15497.750;   59.000;    0.000
 647.04;15618.700;  -14.000;    0.000
 647.62;15436.950;   57.000;    0.000
 648.20;15429.600;    5.000;    0.000
 648.78;15286.350;   82.000;    0.000
 649.36;15377.850;   10.000;    0.000
 649.94;15346.900;   12.000;    0.000
 650.52;15369.150;  -15.000;    0.000
 651.11;15509.050;   32.000;    0.000
 651.69;15556.500;   44.000;    0.000
 652.27;15363.400;   70.000;    0.000
 652.85;15359.050;   25.000;    0.000
 653.43;15283.550;  -26.000;    0.000
 654.01;15499.200;  -17.000;    0.000
 654.59;15635.650;   37.000;    0.000
 655.17;15682.550;  -44.000;    0.000
 655.74;15702.350;  -60.000;    0.000
 656.32;15772.550;   -2.000;    0.000
 656.90;16053.450;   27.000;    0.000
 657.48;16161.700;   27.000;    0.000
 658.06;16358.950;  -15.000;    0.000
 658.64;16780.400;   21.000;    0.000
 659.22;16695.550;   38.000;    0.000
 659.80;16797.000;  -32.000;    0.000
 660.38;16933.000;   -1.000;    0.000
 660.96;16931.100;  -39.000;    0.000
 661.54;16987.100;  -28.000;    0.000
 662.12;17031.550;    8.000;    0.000
 662.70;16854.450;   23.000;    0.000
 663.28;16236.450;  -18.000;    0.000
 663.86;15834.650;   10.000;    0.000
 664.44;15869.150;    5.000;    0.000
 665.02;15725.900;   53.000;    0.000
 665.60;15645.350;  -16.000;    0.000
 666.18;15503.800;  -34.000;    0.000
 666.75;15506.950;  -48.000;    0.000
 667.33;15545.450;   46.000;    0.000
 667.91;15647.850;  -53.000;    0.000
 668.49;15588.300;  -19.000;    0.000
 669.07;15446.650;  -24.000;    0.000
 669.65;15376.850;  -17.000;    0.000
 670.23;15421.100;  -14.000;    0.000
 670.81;15659.450;  -37.000;    0.000
 671.39;15667.700;  -47.000;    0.000
 671.97;15750.300;   -1.000;    0.000
 672.54;15750.900;  -14.000;    0.000
 673.12;15849.850;    0.000;    0.000
 673.70;15967.700;  -22.000;    0.000
 674.28;15895.950;   12.000;    0.000
 674.86;16027.300;  -56.000;    0.000
 675.44;16035.200;  -56.000;    0.000
 676.02;15953.600;   47.000;    0.000
 676.59;16223.650;  -10.000;    0.000
 677.17;16254.050;   29.000;    0.000
 677.75;16144.300;   -9.000;    0.000
 678.33;16138.350;  -57.000;    0.000
 678.91;16257.000;    9.000;    0.000
 679.49;16413.000;   10.000;    0.000
 680.06;16546.850;  -30.000;    0.000
 680.64;16553.200;   -8.000;    0.000
 681.22;16579.000;   -7.000;    0.000
 681.80;16792.050;   31.000;    0.000
 682.38;16803.650;   18.000;    0.000
 682.96;17024.950;  -60.000;    0.000
 683.53;16982.150;  -41.000;    0.000
 684.11;17003.400;  -11.000;    0.000
 684.69;16868.750;   21.000;    0.000
 685.27;16874.100;  -34.000;    0.000
 685.85;16942.000;  -21.000;    0.000
 686.42;16839.550;  -46.000;    0.000
 687.00;16815.500;  -18.000;    0.000
 687.58;17088.900;  -63.000;    0.000
 688.16;16851.050;  -38.000;    0.000
 688.73;17014.000;  -86.000;    0.000
 689.31;16965.700;  -38.000;    0.000
 689.89;16745.500;  -24.000;    0.000
 690.47;16492.350;  -22.000;    0.000
 691.04;16394.650;    4.000;    0.000
 691.62;16657.900;  -10.000;    0.000
 692.20;16506.650;  -66.000;    0.000
 692.78;16489.650;   51.000;    0.000
 693.35;16502.350;  -14.000;    0.000
 693.93;16392.650;   -1.000;    0.000
 694.51;16141.150;  -12.000;    0.000
 695.09;16136.200;   -6.000;    0.000
 695.66;16100.900;  -42.000;    0.000
 696.24;15804.950;    6.000;    0.000
 696.82;15958.500;  -78.000;    0.000
 697.39;15908.050;   37.000;    0.000
 697.97;15820.100;  -34.000;    0.000
 698.55;15692.350;  -36.000;    0.000
 699.13;15692.550;  -12.000;    0.000
 699.70;15545.150;   -4.000;    0.000
 700.28;15451.650;   13.000;    0.000
 700.86;15382.650;   28.000;    0.000
 701.43;15265.450;    5.000;    0.000
 702.01;15111.450;  -11.000;    0.000
 702.59;15104.300;  -17.000;    0.000
 703.16;14955.800;  -40.000;    0.000
 703.74;14921.300;  -21.000;    0.000
 704.32;14875.750;   -2.000;    0.000
 704.89;14790.750;    1.000;    0.000
 705.47;14702.550;   -5.000;    0.000
 706.05;14636.000;   -3.000;    0.000
 706.62;14530.950;  -67.000;    0.000
 707.20;14357.550;  -20.000;    0.000
 707.78;14327.000;   -8.000;    0.000
 708.35;14224.900;  -18.000;    0.000
 708.93;14207.350;  -18.000;    0.000
 709.51;14084.750;  -31.000;    0.000
 710.08;14082.100;   -9.000;    0.000
 710.66;14061.400;    5.000;    0.000
 711.23;13938.300;  -18.000;    0.000
 711.81;13891.250;  -38.000;    0.000
 712.39;13946.800;  -38.000;    0.000
 712.96;13980.150;    0.000;    0.000
 713.54;13710.050;    8.000;    0.000
 714.11;13745.750;  -44.000;    0.000
 714.69;13698.050;  -26.000;    0.000
 715.27;13721.700;   -6.000;    0.000
 715.84;13711.800;  -57.000;    0.000
 716.42;13483.300;  -59.000;    0.000
 716.99;13638.500;  -49.000;    0.000
 717.57;13494.400;  -48.000;    0.000
 718.15;13438.200;  -14.000;    0.000
 718.72;13385.100;  -18.000;    0.000
 719.30;13400.850;   14.000;    0.000
 719.87;13458.250;  -16.000;    0.000
 720.45;13406.350;   -1.000;    0.000
 721.02;13263.400;   20.000;    0.000
 721.60;13200.250;   18.000;    0.000
 722.17;13125.400;  -36.000;    0.000
 722.75;13230.450;   -3.000;    0.000
 723.33;13321.300;  -10.000;    0.000
 723.90;13264.900;  -51.000;    0.000
 724.48;13144.600;   10.000;    0.000
 725.05;13074.850;  -43.000;    0.000
 725.63;13083.300;   19.000;    0.000
 726.20;13123.950;   42.000;    0.000
 726.78;13117.400;  -37.000;    0.000
 727.35;13185.550;   10.000;    0.000
 727.93;13202.000;  -37.000;    0.000
 728.50;13028.600;  -13.000;    0.000
 729.08;12989.700;  -50.000;    0.000
 729.65;12990.850;  -11.000;    0.000
 730.23;12933.350;  -68.000;    0.000
 730.80;12982.350;   25.000;    0.000
 731.38;12899.550;  -62.000;    0.000
 731.95;13073.000;  -42.000;    0.000
 732.53;12927.200;  -37.000;    0.000
 733.10;12821.400;  -59.000;    0.000
 733.68;12818.400;  -41.000;    0.000
 734.25;12751.850;  -42.000;    0.000
 734.82;12791.000;   16.000;    0.000
 735.40;12641.800;    5.000;    0.000
 735.97;12648.300;   -3.000;    0.000
 736.55;12719.350;  -55.000;    0.000
 737.12;12769.800;  -40.000;    0.000
 737.70;12730.200;   -5.000;    0.000
 738.27;12713.350;  -15.000;    0.000
 738.85;12741.800;  -44.000;    0.000
 739.42;12762.100;  -23.000;    0.000
 739.99;12773.200;  -21.000;    0.000
 740.57;12856.000;  -52.000;    0.000
 741.14;12950.650;   -2.000;    0.000
 741.72;12891.400;    5.000;    0.000
 742.29;12972.900;   -4.000;    0.000
 742.87;12843.200;  -40.000;    0.000
 743.44;12879.800;  -17.000;    0.000
 744.01;12757.850;  -68.000;    0.000
 744.59;12826.400;  -54.000;    0.000
 745.16;12837.200;    9.000;    0.000
 745.73;12911.900;  -13.000;    0.000
 746.31;12853.550;  -32.000;    0.000
 746.88;12647.100;   -1.000;    0.000
 747.46;12831.350;  -30.000;    0.000
 748.03;12759.850;  -44.000;    0.000
 748.60;12705.300;    6.000;    0.000
 749.18;12767.900;  -11.000;    0.000
 749.75;12749.050;  -54.000;    0.000
 750.32;12884.450;  -32.000;    0.000
 750.90;12848.150;   15.000;    0.000
 751.47;12761.750;    8.000;    0.000
 752.04;12813.750;  -19.000;    0.000
 752.62;12708.300;   36.000;    0.000
 753.19;12611.050;  -11.000;    0.000
 753.76;12453.100;    1.000;    0.000
 754.34;12346.650;  -11.000;    0.000
 754.91;12444.650;  -44.000;    0.000
 755.48;12465.300;  -45.000;    0.000
 756.06;12517.850;    8.000;    0.000
 756.63;12475.300;  -43.000;    0.000
 757.20;12536.250;   46.000;    0.000
 757.78;12494.950;  -39.000;    0.000
 758.35;12385.400;  -61.000;    0.000
 758.92;12366.500;  -21.000;    0.000
 759.50;12385.750;  -20.000;    0.000
 760.07;12298.400;  -22.000;    0.000
 760.64;12219.350;   -4.000;    0.000
 761.21;12228.650;    2.000;    0.000
 761.79;12076.500;    3.000;    0.000
 762.36;12082.250;  -21.000;    0.000
 762.93;12037.900;  -22.000;    0.000
 763.50;11898.700;  -23.000;    0.000
 764.08;11945.950;  -14.000;    0.000
 764.65;11784.250;   -8.000;    0.000
 765.22;11813.900;  -59.000;    0.000
 765.79;11831.550;  -24.000;    0.000
 766.37;11697.400;  -18.000;    0.000
 766.94;11707.100;  -16.000;    0.000
 767.51;11784.750;  -17.000;    0.000
 768.08;11748.550;  -11.000;    0.000
 768.66;11594.750;    3.000;    0.000
 769.23;11443.000;  -12.000;    0.000
 769.80;11305.300;   15.000;    0.000
 770.37;11330.250;  -44.000;    0.000
 770.94;11195.250;  -64.000;    0.000
 771.52;11213.200;  -28.000;    0.000
 772.09;11192.850;  -29.000;    0.000
 772.66;11037.050;  -62.000;    0.000
 773.23;11060.500;  -55.000;    0.000
 773.80;10996.150;  -49.000;    0.000
 774.38;10884.550;  -23.000;    0.000
 774.95;10790.350;  -38.000;    0.000
 775.52;10799.200;    8.000;    0.000
 776.09;10744.450;  -15.000;    0.000
 776.66;10761.050;  -85.000;    0.000
 777.24;10523.900;  -41.000;    0.000
 777.81;10445.850;   -2.000;    0.000
 778.38;10460.150;  -61.000;    0.000
 778.95;10403.700;  -26.000;    0.000
 779.52;10425.050;  -34.000;    0.000
 780.09;10206.350;  -17.000;    0.000
 780.66;10204.000;  -38.000;    0.000
 781.24;10101.000;  -25.000;    0.000
 781.81;10044.700;  -56.000;    0.000
 782.38; 9950.400;  -24.000;    0.000
 782.95; 9906.750;  -32.000;    0.000
 783.52; 9859.100;  -36.000;    0.000
 784.09; 9844.150;  -24.000;    0.000
 784.66; 9939.450;  -21.000;    0.000
 785.23; 9916.150;  -17.000;    0.000
 785.80; 9749.850;  -23.000;    0.000
 786.38; 9656.950;  -17.000;    0.000
 786.95; 9504.350;  -33.000;    0.000
 787.52; 9471.800; -104.000;    0.000
 788.09; 9429.100;  -15.000;    0.000
 788.66; 9396.950;  -17.000;    0.000
 789.23; 9343.250;  -23.000;    0.000
 789.80; 9253.050;  -38.000;    0.000
 790.37; 9182.650;  -23.000;    0.000
 790.94; 9105.050;  -37.000;    0.000
 791.51; 9095.350;   -9.000;    0.000
 792.08; 9055.750;  -31.000;    0.000
 792.65; 9073.550;   -6.000;    0.000
 793.22; 9020.250;  -67.000;    0.000
 793.80; 8940.700;   21.000;    0.000
 794.37; 8758.400;  -68.000;    0.000
 794.94; 8692.150;  -66.000;    0.000
 795.51; 8816.500;  -28.000;    0.000
 796.08; 8779.550;  -16.000;    0.000
 796.65; 8811.900;  -15.000;    0.000
 797.22; 8692.750;   19.000;    0.000
 797.79; 8630.100;  -18.000;    0.000
 798.36; 8598.550;    1.000;    0.000
 798.93; 8516.450;  -49.000;    0.000
 799.50; 8485.050;  -22.000;    0.000
 800.07; 8396.200;  -78.000;    0.000
 800.64; 8393.200;  -60.000;    0.000
 801.21; 8480.150;   23.000;    0.000
 801.78; 8442.800;    1.000;    0.000
 802.35; 8407.700;    8.000;    0.000
 802.92; 8433.550;  -44.000;    0.000
 803.49; 8344.950;  -23.000;    0.000
 804.06; 8335.750;  -31.000;    0.000
 804.63; 8373.250;   -5.000;    0.000
 805.20; 8414.250;  -13.000;    0.000
 805.77; 8363.650;   -7.000;    0.000
 806.34; 8303.700;   26.000;    0.000
 806.91; 8266.800;  -49.000;    0.000
 807.47; 8094.750;  -19.000;    0.000
 808.04; 8056.650;  -14.000;    0.000
 808.61; 8174.000;  -40.000;    0.000
 809.18; 8146.400;  -38.000;    0.000
 809.75; 8123.600;  -37.000;    0.000
 810.32; 8029.800;   -5.000;    0.000
 810.89; 8077.500;   18.000;    0.000
 811.46; 8045.750;  -37.000;    0.000
 812.03; 7986.600;   24.000;    0.000
 812.60; 7788.100;   -8.000;    0.000
 813.17; 7732.200;   -7.000;    0.000
 813.74; 7728.350;  -36.000;    0.000
 814.31; 7714.950;   51.000;    0.000
 814.87; 7757.750;  -11.000;    0.000
 815.44; 7683.650;  -39.000;    0.000
 816.01; 7676.300;  -49.000;    0.000
 816.58; 7672.600;  -55.000;    0.000
 817.15; 7646.450;  -38.000;    0.000
 817.72; 7576.450;    4.000;    0.000
 818.29; 7510.750;   -9.000;    0.000
 818.86; 7497.900;  -53.000;    0.000
 819.42; 7529.400;  -77.000;    0.000
 819.99; 7577.650;  -46.000;    0.000
 820.56; 7359.800;  -39.000;    0.000
 821.13; 7390.550;   -3.000;    0.000
 821.70; 7337.700;  -20.000;    0.000
 822.27; 7226.600;  -35.000;    0.000
 822.84; 7295.250;   10.000;    0.000
 823.40; 7280.650;   36.000;    0.000
 823.97; 7283.300;    7.000;    0.000
 824.54; 7281.650;  -35.000;    0.000
 825.11; 7288.550;  -29.000;    0.000
 825.68; 7126.400;  -24.000;    0.000
 826.24; 7137.700;  -15.000;    0.000
 826.81; 7185.000;    7.000;    0.000
 827.38; 7148.900;  -57.000;    0.000
 827.95; 7114.550;  -51.000;    0.000
 828.52; 7235.400;   -5.000;    0.000
 829.08; 7204.200;   26.000;    0.000
 829.65; 7243.650;  -52.000;    0.000
 830.22; 7204.900;   -7.000;    0.000
 830.79; 7189.600;  -11.000;    0.000
 831.36; 7121.400;  -43.000;    0.000
 831.92; 7022.500;  -82.000;    0.000
 832.49; 7035.850;  -33.000;    0.000
 833.06; 7064.150;  -91.000;    0.000
 833.63; 7098.700;   16.000;    0.000
 834.19; 7084.200;   15.000;    0.000
 834.76; 7015.450;  -34.000;    0.000
 835.33; 6977.750;  -32.000;    0.000
 835.90; 6976.600;  -20.000;    0.000
 836.46; 6865.450;   -3.000;    0.000
 837.03; 6902.950;  -17.000;    0.000
 837.60; 6907.050;  -18.000;    0.000
 838.17; 6930.250;  -63.000;    0.000
 838.73; 6915.700;  -45.000;    0.000
 839.30; 6894.000;  -18.000;    0.000
 839.87; 6846.750;    2.000;    0.000
 840.43; 6890.900;  -42.000;    0.000
 841.00; 6833.050;   19.000;    0.000
 841.57; 6907.850;  -81.000;    0.000
 842.14; 6756.950;  -42.000;    0.000
 842.70; 6726.450;  -32.000;    0.000
 843.27; 6776.450;  -42.000;    0.000
 843.84; 6728.500;  -59.000;    0.000
 844.40; 6788.150;  -24.000;    0.000
 844.97; 6705.700;  -28.000;    0.000
 845.54; 6777.400;  -49.000;    0.000
 846.10; 6791.650;  -34.000;    0.000
 846.67; 6730.800;  -85.000;    0.000
 847.24; 6719.050;    9.000;    0.000
 847.80; 6670.900;  -79.000;    0.000
 848.37; 6664.150;   -3.000;    0.000
 848.94; 6589.550;  -70.000;    0.000
 849.50; 6646.650;   23.000;    0.000
 850.07; 6676.200;  -45.000;    0.000
 850.63; 6622.350;    6.000;    0.000
 851.20; 6638.200;  -13.000;    0.000
 851.77; 6588.300;   -4.000;    0.000
 852.33; 6620.250;  -48.000;    0.000
 852.90; 6609.950;  -61.000;    0.000
 853.47; 6604.600;  -64.000;    0.000
 854.03; 6533.450;  -51.000;    0.000
 854.60; 6458.700;  -27.000;    0.000
 855.16; 6490.550;   -3.000;    0.000
 855.73; 6502.450;  -70.000;    0.000
 856.30; 6494.400;  -13.000;    0.000
 856.86; 6431.950;  -55.000;    0.000
 857.43; 6408.100;   -2.000;    0.000
 857.99; 6381.450;  -47.000;    0.000
 858.56; 6342.250;  -34.000;    0.000
 859.12; 6291.450;  -34.000;    0.000
 859.69; 6277.800;    0.000;    0.000
 860.26; 6239.000;  -30.000;    0.000
 860.82; 6335.300;  -28.000;    0.000
 861.39; 6278.550;  -44.000;    0.000
 861.95; 6332.800;   12.000;    0.000
 862.52; 6269.000;  -19.000;    0.000
 863.08; 6223.450;   28.000;    0.000
 863.65; 6185.600;   -5.000;    0.000
 864.21; 6133.350;    1.000;    0.000
 864.78; 6073.450;    3.000;    0.000
 865.34; 6153.400;  -10.000;    0.000
 865.91; 6129.650;  -43.000;    0.000
 866.47; 6056.050;  -47.000;    0.000
 867.04; 6009.300;    5.000;    0.000
 867.61; 5970.300;  -31.000;    0.000
 868.17; 6021.050;  -64.000;    0.000
 868.74; 5911.250;   28.000;    0.000
 869.30; 5938.350;  -45.000;    0.000
 869.86; 6009.600;  -44.000;    0.000
 870.43; 5969.800;  -27.000;    0.000
 870.99; 5857.650;  -23.000;    0.000
 871.56; 5874.200;  -63.000;    0.000
 872.12; 5861.900;   -9.000;    0.000
 872.69; 5860.100;  -43.000;    0.000
 873.25; 5828.400;  -38.000;    0.000
 873.82; 5819.900;  -55.000;    0.000
 874.38; 5833.250;  -30.000;    0.000
 874.95; 5821.450;  -16.000;    0.000
 875.51; 5665.550;  -64.000;    0.000
 876.08; 5739.650;  -18.000;    0.000
 876.64; 5662.000;  -86.000;    0.000
 877.20; 5598.050;  -50.000;    0.000
 877.77; 5515.250;  -41.000;    0.000
 878.33; 5418.050;   -9.000;    0.000
 878.90; 5366.650;  -40.000;    0.000
 879.46; 5355.050;  -62.000;    0.000
 880.03; 5413.900;    2.000;    0.000
 880.59; 5418.850;  -42.000;    0.000
 881.15; 5394.000;   -9.000;    0.000
 881.72; 5389.000;  -71.000;    0.000
 882.28; 5379.700;    4.000;    0.000
 882.85; 5363.800;  -12.000;    0.000
 883.41; 5344.250;  -52.000;    0.000
 883.97; 5383.250;  -40.000;    0.000
 884.54; 5291.350;  -12.000;    0.000
 885.10; 5363.400;   -5.000;    0.000
 885.66; 5356.850;  -27.000;    0.000
 886.23; 5184.550;   -7.000;    0.000
 886.79; 5121.000;  -39.000;    0.000
 887.36; 5070.200;  -17.000;    0.000
 887.92; 4961.000;  -33.000;    0.000
 888.48; 4940.250;  -11.000;    0.000
 889.05; 4951.700;  -70.000;    0.000
 889.61; 4960.950;  -57.000;    0.000
 890.17; 4923.050;  -91.000;    0.000
 890.74; 4822.200;  -36.000;    0.000
 891.30; 4750.650;  -14.000;    0.000
 891.86; 4742.350;  -46.000;    0.000
 892.43; 4759.000;   11.000;    0.000
 892.99; 4742.550;  -25.000;    0.000
 893.55; 4684.200;  -23.000;    0.000
 894.11; 4645.350;  -26.000;    0.000
 894.68; 4640.900;  -34.000;    0.000
 895.24; 4687.850;  -96.000;    0.000
 895.80; 4696.500;  -17.000;    0.000
 896.37; 4664.100;  -43.000;    0.000
 896.93; 4668.200;  -20.000;    0.000
 897.49; 4587.600;  -34.000;    0.000
 898.05; 4580.550;  -35.000;    0.000
 898.62; 4656.050;  -24.000;    0.000
 899.18; 4581.950;  -36.000;    0.000
 899.74; 4626.000;  -83.000;    0.000
 900.31; 4811.600;  -44.000;    0.000
 900.87; 4752.300;  -37.000;    0.000
 901.43; 4862.950;  -29.000;    0.000
 901.99; 4832.400;  -53.000;    0.000
 902.56; 4831.750;  -10.000;    0.000
 903.12; 4772.550;  -13.000;    0.000
 903.68; 4726.450;  -21.000;    0.000
 904.24; 4732.550;  -28.000;    0.000
 904.80; 4712.950;  -41.000;    0.000
 905.37; 4765.350;  -28.000;    0.000
 905.93; 4695.000;  -53.000;    0.000
 906.49; 4804.500;  -58.000;    0.000
 907.05; 4801.800;  -49.000;    0.000
 907.61; 4779.300;    6.000;    0.000
 908.18; 4772.100;  -55.000;    0.000
 908.74; 4692.050;  -82.000;    0.000
 909.30; 4646.900;   28.000;    0.000
 909.86; 4561.550;  -50.000;    0.000
 910.42; 4579.300;   26.000;    0.000
 910.99; 4462.200;  -19.000;    0.000
 911.55; 4449.100;  -46.000;    0.000
 912.11; 4398.500;  -25.000;    0.000
 912.67; 4427.900;  -28.000;    0.000
 913.23; 4380.700;  -58.000;    0.000
 913.79; 4386.400;    0.000;    0.000
 914.36; 4411.250;  -66.000;    0.000
 914.92; 4417.500;  -21.000;    0.000
 915.48; 4297.750;  -77.000;    0.000
 916.04; 4303.900;   34.000;    0.000
 916.60; 4240.450;   11.000;    0.000
 917.16; 4271.050;  -78.000;    0.000
 917.72; 4251.050;  -32.000;    0.000
 918.28; 4164.500;   -1.000;    0.000
 918.85; 4103.800;  -22.000;    0.000
 919.41; 4070.900;  -13.000;    0.000
 919.97; 4013.550;  -34.000;    0.000
 920.53; 3956.450;  -29.000;    0.000
 921.09; 3960.200;  -74.000;    0.000
 921.65; 3959.150;  -70.000;    0.000
 922.21; 3916.000;  -24.000;    0.000
 922.77; 3859.600;   16.000;    0.000
 923.33; 3846.850;  -16.000;    0.000
 923.89; 3786.400;  -24.000;    0.000
 924.45; 3790.750;   -4.000;    0.000
 925.01; 3735.450;  -89.000;    0.000
 925.58; 3796.750;  -15.000;    0.000
 926.14; 3743.550;  -19.000;    0.000
 926.70; 3664.300;  -45.000;    0.000
 927.26; 3582.250;  -51.000;    0.000
 927.82; 3569.700;   10.000;    0.000
 928.38; 3496.800;   -4.000;    0.000
 928.94; 3494.600;  -21.000;    0.000
 929.50; 3448.950;  -57.000;    0.000
 930.06; 3453.200;   19.000;    0.000
 930.62; 3493.200;  -62.000;    0.000
 931.18; 3496.600;  -59.000;    0.000
 931.74; 3385.200;   -9.000;    0.000
 932.30; 3442.700;   -6.000;    0.000
 932.86; 3426.700;  -23.000;    0.000
 933.42; 3386.750;  -58.000;    0.000
 933.98; 3401.850;  -72.000;    0.000
 934.54; 3355.000;  -68.000;    0.000
 935.10; 3305.250;  -34.000;    0.000
 935.66; 3202.950;  -29.000;    0.000
 936.22; 3258.250;  -48.000;    0.000
 936.78; 3207.000;    5.000;    0.000
 937.34; 3166.950;  -69.000;    0.000
 937.90; 3154.700;  -52.000;    0.000
 938.46; 3177.850;   -7.000;    0.000
 939.02; 3145.900;  -45.000;    0.000
 939.58; 3088.150;  -22.000;    0.000
 940.14; 3050.300;  -68.000;    0.000
 940.70; 3103.150;    5.000;    0.000
 941.25; 3081.700;  -23.000;    0.000
 941.81; 2993.700;    9.000;    0.000
 942.37; 3015.250;    6.000;    0.000
 942.93; 2975.350;  -13.000;    0.000
 943.49; 2987.300;    1.000;    0.000
 944.05; 2847.450;  -46.000;    0.000
 944.61; 2849.450;  -95.000;    0.000
 945.17; 2820.250;   26.000;    0.000
 945.73; 2824.900;   -2.000;    0.000
 946.29; 2841.900;  -54.000;    0.000
 946.85; 2809.150;   -6.000;    0.000
 947.40; 2806.650;  -20.000;    0.000
 947.96; 2748.450;  -54.000;    0.000
 948.52; 2691.900;  -28.000;    0.000
 949.08; 2733.800;   14.000;    0.000
 949.64; 2685.050;  -34.000;    0.000
 950.20; 2700.800;   -7.000;    0.000
 950.76; 2696.200;  -22.000;    0.000
 951.32; 2718.000;  -49.000;    0.000
 951.87; 2717.400;  -34.000;    0.000
 952.43; 2626.100;  -54.000;    0.000
 952.99; 2607.100;  -40.000;    0.000
 953.55; 2614.000;  -10.000;    0.000
 954.11; 2563.750;  -27.000;    0.000
 954.67; 2579.550;  -96.000;    0.000
 955.22; 2558.200;  -28.000;    0.000
 955.78; 2552.550;  -65.000;    0.000
 956.34; 2535.150;   -8.000;    0.000
 956.90; 2544.550;  -55.000;    0.000
 957.46; 2463.200;  -39.000;    0.000
 958.01; 2516.600;  -15.000;    0.000
 958.57; 2517.700;    9.000;    0.000
 959.13; 2494.450;  -19.000;    0.000
 959.69; 2446.800;  -14.000;    0.000
 960.25; 2474.300;  -35.000;    0.000
 960.80; 2453.200;  -58.000;    0.000
 961.36; 2498.700;    3.000;    0.000
 961.92; 2410.450;  -28.000;    0.000
 962.48; 2430.250;  -32.000;    0.000
 963.03; 2405.250;    8.000;    0.000
 963.59; 2428.700;   -4.000;    0.000
 964.15; 2411.150;   -7.000;    0.000
 964.71; 2425.350;  -47.000;    0.000
 965.26; 2364.950;  -43.000;    0.000
 965.82; 2398.450;  -51.000;    0.000
 966.38; 2401.200;  -25.000;    0.000
 966.94; 2376.600;  -35.000;    0.000
 967.49; 2332.450;  -14.000;    0.000
 968.05; 2335.150;  -51.000;    0.000
 968.61; 2310.750;   -4.000;    0.000
 969.17; 2291.600;  -20.000;    0.000
 969.72; 2280.900;   -4.000;    0.000
 970.28; 2200.900;  -40.000;    0.000
 970.84; 2198.500;  -38.000;    0.000
 971.39; 2185.200;  -85.000;    0.000
 971.95; 2176.350;  -55.000;    0.000
 972.51; 2167.250;  -61.000;    0.000
 973.06; 2133.100;  -59.000;    0.000
 973.62; 2106.850;  -40.000;    0.000
 974.18; 2083.000;   -9.000;    0.000
 974.73; 2076.200;  -61.000;    0.000
 975.29; 1999.300;  -63.000;    0.000
 975.85; 2039.800;  -19.000;    0.000
 976.40; 2023.150;   -3.000;    0.000
 976.96; 1996.350;  -16.000;    0.000
 977.52; 1969.000;  -39.000;    0.000
 978.07; 1973.850;  -49.000;    0.000
 978.63; 1949.300;  -20.000;    0.000
 979.19; 1962.900;  -69.000;    0.000
 979.74; 1901.850;    1.000;    0.000
 980.30; 1887.100;  -63.000;    0.000
 980.85; 1896.400;  -21.000;    0.000
 981.41; 1844.200;  -21.000;    0.000
 981.97; 1826.800;  -45.000;    0.000
 982.52; 1849.400;  -31.000;    0.000
 983.08; 1822.550;  -54.000;    0.000
 983.63; 1843.250;  -66.000;    0.000
 984.19; 1781.000;    9.000;    0.000
 984.75; 1780.600;   -8.000;    0.000
 985.30; 1781.050;  -56.000;    0.000
 985.86; 1811.650;  -58.000;    0.000
 986.41; 1769.800;  -38.000;    0.000
 986.97; 1716.450;  -47.000;    0.000
 987.52; 1694.000;  -71.000;    0.000
 988.08; 1714.450;   13.000;    0.000
 988.64; 1674.500;  -56.000;    0.000
 989.19; 1672.100;  -46.000;    0.000
 989.75; 1632.150;  -26.000;    0.000
 990.30; 1624.250;  -43.000;    0.000
 990.86; 1588.100;  -36.000;    0.000
 991.41; 1596.450;  -87.000;    0.000
 991.97; 1577.850;  -44.000;    0.000
 992.52; 1603.350;  -24.000;    0.000
 993.08; 1563.150;  -50.000;    0.000
 993.63; 1533.800;  -59.000;    0.000
 994.19; 1495.450;  -80.000;    0.000
 994.74; 1488.750;   -7.000;    0.000
 995.30; 1486.300;   -1.000;    0.000
 995.85; 1432.000;  -66.000;    0.000
 996.41; 1409.250;  -10.000;    0.000
 996.96; 1388.400; -101.000;    0.000
 997.52; 1384.650;  -10.000;    0.000
 998.07; 1366.300;  -48.000;    0.000
 998.63; 1375.350;  -58.000;    0.000
 999.18; 1347.850;  -20.000;    0.000
 999.74; 1282.700;  -33.000;    0.000
1000.29; 1304.500;  -10.000;    0.000
1000.85; 1267.000;  -37.000;    0.000
1001.40; 1252.850;  -68.000;    0.000
1001.96; 1262.850;  -51.000;    0.000
1002.51; 1249.500;   48.000;    0.000
1003.06; 1215.250;  -14.000;    0.000
1003.62; 1194.950;  -50.000;    0.000
1004.17; 1190.150;  -61.000;    0.000
1004.73; 1209.300; -107.000;    0.000
1005.28; 1201.750;    1.000;    0.000
1005.83; 1173.300;  -36.000;    0.000
1006.39; 1163.450;   -8.000;    0.000
1006.94; 1198.350;  -14.000;    0.000
1007.50; 1217.650;  -84.000;    0.000
1008.05; 1223.900;  -33.000;    0.000
1008.60; 1217.950;  -43.000;    0.000
1009.16; 1225.450;  -77.000;    0.000
1009.71; 1219.200;  -60.000;    0.000
1010.27; 1231.900;  -13.000;    0.000
1010.82; 1204.700;   19.000;    0.000
1011.37; 1212.550;  -57.000;    0.000
1011.93; 1208.850;   -9.000;    0.000
1012.48; 1246.100;   21.000;    0.000
1013.03; 1204.600;  -33.000;    0.000
1013.59; 1223.600;  -48.000;    0.000
1014.14; 1188.400;  -25.000;    0.000
1014.69; 1196.750;  -52.000;    0.000
1015.25; 1180.350;  -26.000;    0.000
1015.80; 1160.250;  -12.000;    0.000
1016.35; 1154.000;  -25.000;    0.000
1016.91; 1130.700;  -18.000;    0.000
1017.46; 1116.550;  -21.000;    0.000
1018.01; 1099.300;  -44.000;    0.000
1018.57; 1082.400;  -41.000;    0.000
1019.12; 1041.550;  -28.000;    0.000
1019.67; 1041.900;   -4.000;    0.000
1020.23; 1005.500;  -14.000;    0.000
1020.78;  970.250;  -45.000;    0.000
1021.33;  953.650;  -10.000;    0.000
1021.88;  955.650;  -43.000;    0.000
1022.44;  940.900;  -87.000;    0.000
1022.99;  940.800;  -50.000;    0.000
1023.54;  919.700;   -6.000;    0.000
1024.09;  896.600;  -50.000;    0.000
1024.65;  900.950;  -35.000;    0.000
1025.20;  883.000;  -26.000;    0.000
1025.75;  864.100;  -16.000;    0.000
1026.30;  840.050;   12.000;    0.000
1026.86;  831.400;  -12.000;    0.000
1027.41;  807.100;  -42.000;    0.000
1027.96;  786.200;  -16.000;    0.000
1028.51;  800.400;  -49.000;    0.000
1029.07;  776.800;  -19.000;    0.000
1029.62;  786.550;  -81.000;    0.000
1030.17;  755.050;  -24.000;    0.000
1030.72;  759.650;  -27.000;    0.000
1031.27;  722.250;  -64.000;    0.000
1031.83;  703.250;   36.000;    0.000
1032.38;  694.850;  -22.000;    0.000
1032.93;  689.450;  -49.000;    0.000
1033.48;  690.700;  -25.000;    0.000
1034.03;  685.500;   -5.000;    0.000
1034.58;  684.400;  -35.000;    0.000
1035.14;  651.400;   -4.000;    0.000
1035.69;  668.400;  -88.000;    0.000
1036.24;  644.250;  -27.000;    0.000
1036.79;  642.000;  -46.000;    0.000
1037.34;  606.350;  -48.000;    0.000
1037.89;  595.950;  -37.000;    0.000
1038.45;  595.950;   -5.000;    0.000
1039.00;  590.650;  -49.000;    0.000
1039.55;  581.650;   10.000;    0.000
1040.10;  572.500;  -23.000;    0.000
1040.65;  550.250;  -17.000;    0.000
1041.20;  557.050;  -18.000;    0.000
1041.75;  552.100;   11.000;    0.000
1042.30;  539.500;  -48.000;    0.000
1042.85;  527.500; -114.000;    0.000
1043.41;  519.850;  -76.000;    0.000
1043.96;  505.350;  -52.000;    0.000
1044.51;  512.850;    8.000;    0.000
1045.06;  474.150;   19.000;    0.000
1045.61;  486.100; -102.000;    0.000
1046.16;  489.200;  -23.000;    0.000
1046.71;  483.900;    9.000;    0.000
1047.26;  472.650;  -39.000;    0.000
1047.81;  456.650;  -40.000;    0.000
1048.36;  455.600;  -54.000;    0.000
1048.91;  443.050;  -33.000;    0.000
1049.46;  438.000;  -40.000;    0.000
1050.01;  438.550;   -7.000;    0.000
1050.56;  429.700;  -75.000;    0.000
1051.11;  439.550;  -38.000;    0.000
1051.66;  403.450;  -89.000;    0.000
1052.21;  423.200;  -31.000;    0.000
1052.76;  376.750;  -78.000;    0.000
1053.31;  405.350;  -75.000;    0.000
1053.86;  391.550;  -16.000;    0.000
1054.41;  377.600;  -88.000;    0.000
1054.96;  371.600;  -40.000;    0.000
1055.51;  361.400;  -24.000;    0.000
1056.06;  361.100;  -40.000;    0.000
1056.61;  362.800;  -13.000;    0.000
1057.16;  365.650;  -85.000;    0.000
1057.71;  343.200;  -17.000;    0.000
1058.26;  325.500;  -31.000;    0.000
1058.81;  350.300;  -43.000;    0.000
1059.36;  339.800;  -21.000;    0.000
1059.91;  324.600;  -54.000;    0.000
1060.46;  317.250;  -39.000;    0.000
1061.01;  316.350;  -55.000;    0.000
1061.56;  317.000;  -36.000;    0.000
1062.11;  295.000;   -6.000;    0.000
1062.66;  297.500;  -28.000;    0.000
1063.21;  286.600;  -85.000;    0.000
1063.76;  282.850;  -84.000;    0.000
1064.31;  298.350; -113.000;    0.000
1064.86;  275.850;  -36.000;    0.000
1065.40;  271.050;  -79.000;    0.000
1065.95;  264.300;  -49.000;    0.000
1066.50;  277.500;  -45.000;    0.000
1067.05;  244.200;  -53.000;    0.000
1067.60;  250.800;  -39.000;    0.000
1068.15;  247.550;  -20.000;    0.000
1068.70;  247.650;  -14.000;    0.000
1069.25;  236.400;  -37.000;    0.000
1069.79;  243.750;  -42.000;    0.000
1070.34;  231.650;  -52.000;    0.000
1070.89;  244.300;  -51.000;    0.000
1071.44;  219.650;   22.000;    0.000
1071.99;  227.750;  -20.000;    0.000
1072.54;  218.400;  -46.000;    0.000
1073.09;  233.900;  -79.000;    0.000
1073.63;  213.950;  -82.000;    0.000
1074.18;  229.100;  -24.000;    0.000
1074.73;  219.200;  -37.000;    0.000
1075.28;  206.550;  -98.000;    0.000
1075.83;  207.200;  -46.000;    0.000
1076.38;  197.300;  -94.000;    0.000
1076.92;  195.600;  -19.000;    0.000
1077.47;  191.050;  -16.000;    0.000
1078.02;  175.800;  -34.000;    0.000
1078.57;  185.900;  -70.000;    0.000
1079.11;  184.600;  -44.000;    0.000
1079.66;  202.450;    1.000;    0.000
1080.21;  192.600;    5.000;    0.000
1080.76;  200.600;  -14.000;    0.000
1081.31;  187.950;  -88.000;    0.000
1081.85;  178.450;  -33.000;    0.000
1082.40;  168.350;    6.000;    0.000
1082.95;  184.250;  -31.000;    0.000
1083.50;  177.150;  -36.000;    0.000
1084.04;  182.050;  -43.000;    0.000
1084.59;  164.950;   -3.000;    0.000
1085.14;  178.300;  -50.000;    0.000
1085.69;  145.550;  -50.000;    0.000
1086.23;  175.250;  -45.000;    0.000
1086.78;  163.150;  -36.000;    0.000
1087.33;  165.750;  -51.000;    0.000
1087.87;  163.950;  -38.000;    0.000
1088.42;  163.350;  -22.000;    0.000
1088.97;  151.600;  -61.000;    0.000
1089.52;  152.300;   -5.000;    0.000
1090.06;  154.950;  -12.000;    0.000
1090.61;  144.950;  -60.000;    0.000
1091.16;  150.000;  -44.000;    0.000
1091.70;  160.700;  -42.000;    0.000
1092.25;  135.150;   11.000;    0.000
1092.80;  141.250;  -45.000;    0.000
1093.34;  134.250;  -49.000;    0.000
1093.89;  149.800;  -67.000;    0.000
1094.44;  126.500;  -24.000;    0.000
1094.98;  143.550;  -28.000;    0.000
1095.53;  131.150;  -27.000;    0.000
1096.07;  134.950;  -30.000;    0.000
1096.62;  126.050;  -10.000;    0.000
1097.17;  121.300;  -65.000;    0.000
1097.71;  114.750;  -39.000;    0.000
1098.26;  126.150;  -79.000;    0.000
1098.81;  125.400;  -50.000;    0.000
1099.35;  125.750;  -10.000;    0.000
1099.90;  115.850;  -45.000;    0.000
1100.44;  132.950;  -73.000;    0.000

