X-ray (ID 01) / Crystal angle θ_c	X-ray (ID 01) / Impulse Imp
θ_c/°	Imp/# / s

3.0	7846
3.1	5188
3.2	3370
3.3	2367
3.4	1631
3.5	1306
3.6	1127
3.7	1040
3.8	909
3.9	871
4.0	765
4.1	658
4.2	525
4.3	416
4.4	328
4.5	279
4.6	220
4.7	222
4.8	193
4.9	192
5.0	136
5.1	136
5.2	135
5.3	117
5.4	102
5.5	116
5.6	115
5.7	109
5.8	96
5.9	104
6.0	103
6.1	93
6.2	101
6.3	94
6.4	115
6.5	102
6.6	119
6.7	114
6.8	104
6.9	112
7.0	126
7.1	111
7.2	122
7.3	104
7.4	120
7.5	110
7.6	109
7.7	115
7.8	98
7.9	119
8.0	162
8.1	183
8.2	209
8.3	218
8.4	241
8.5	234
8.6	221
8.7	217
8.8	219
8.9	230
9.0	233
9.1	212
9.2	226
9.3	226
9.4	228
9.5	218
9.6	219
9.7	229
9.8	205
9.9	200
10.0	211
10.1	212
10.2	214
10.3	205
10.4	209
10.5	197
10.6	206
10.7	184
10.8	193
10.9	175
11.0	170
11.1	179
11.2	182
11.3	183
11.4	173
11.5	177
11.6	174
11.7	171
11.8	152
11.9	161
12.0	165
12.1	149
12.2	149
12.3	150
12.4	142
12.5	144
12.6	146
12.7	131
12.8	136
12.9	132
13.0	129
13.1	133
13.2	116
13.3	118
13.4	109
13.5	114
13.6	108
13.7	117
13.8	119
13.9	107
14.0	92
14.1	82
14.2	93
14.3	89
14.4	85
14.5	96
14.6	92
14.7	76
14.8	81
14.9	72
15.0	84
15.1	85
15.2	159
15.3	459
15.4	1151
15.5	1108
15.6	511
15.7	216
15.8	146
15.9	117
16.0	90
16.1	84
16.2	106
16.3	96
16.4	96
16.5	98
16.6	130
16.7	172
16.8	295
16.9	810
17.0	2775
17.1	3244
17.2	1817
17.3	646
17.4	227
17.5	155
17.6	103
17.7	84
17.8	84
17.9	78
18.0	75
18.1	64
18.2	73
18.3	69
18.4	70
18.5	71
18.6	67
18.7	59
18.8	66
18.9	73
19.0	59
19.1	59
19.2	54
19.3	65
19.4	63
19.5	62
19.6	53
19.7	58
19.8	49
19.9	58
20.0	59
20.1	61
20.2	62
20.3	60
20.4	57
20.5	60
20.6	58
20.7	58
20.8	53
20.9	53
21.0	57
21.1	58
21.2	52
21.3	53
21.4	50
21.5	49
21.6	52
21.7	50
21.8	52
21.9	48
22.0	49
22.1	55
22.2	50
22.3	54
22.4	45
22.5	50
22.6	42
22.7	40
22.8	43
22.9	50
23.0	48
23.1	43
23.2	52
23.3	46
23.4	41
23.5	52
23.6	40
23.7	39
23.8	42
23.9	46
24.0	47
24.1	42
24.2	48
24.3	46
24.4	35
24.5	47
24.6	48
24.7	49
24.8	44
24.9	53
25.0	39
25.1	45
25.2	49
25.3	45
25.4	43
25.5	41
25.6	41
25.7	43
25.8	44
25.9	49
26.0	36
26.1	47
26.2	43
26.3	45
26.4	48
26.5	44
26.6	37
26.7	43
26.8	42
26.9	48
27.0	46
27.1	44
27.2	41
27.3	41
27.4	48
27.5	37
27.6	39
27.7	46
27.8	43
27.9	40
28.0	39
28.1	48
28.2	42
28.3	41
28.4	38
28.5	36
28.6	36
28.7	45
28.8	35
28.9	47
29.0	40
29.1	42
29.2	48
29.3	36
29.4	31
29.5	44
29.6	33
29.7	39
29.8	30
29.9	38
30.0	39
30.1	39
30.2	41
30.3	40
30.4	38
30.5	40
30.6	37
30.7	35
30.8	29
30.9	40
31.0	40
31.1	38
31.2	42
31.3	39
31.4	34
31.5	43
31.6	42
31.7	44
31.8	58
31.9	57
32.0	139
32.1	273
32.2	221
32.3	96
32.4	58
32.5	37
32.6	55
32.7	43
32.8	44
32.9	36
33.0	45
33.1	31
33.2	42
33.3	34
33.4	34
33.5	43
33.6	41
33.7	33
33.8	39
33.9	41
34.0	37
34.1	38
34.2	43
34.3	37
34.4	45
34.5	35
34.6	40
34.7	36
34.8	32
34.9	35
35.0	37
35.1	44
35.2	43
35.3	44
35.4	51
35.5	53
35.6	73
35.7	136
35.8	560
35.9	797
36.0	492
36.1	175
36.2	67
36.3	54
36.4	46
36.5	41
36.6	43
36.7	34
36.8	40
36.9	34
37.0	43
37.1	35
37.2	36
37.3	38
37.4	40
37.5	47
37.6	35
37.7	31
37.8	36
37.9	41
38.0	31
38.1	36
38.2	41
38.3	32
38.4	36
38.5	41
38.6	32
38.7	30
38.8	31
38.9	35
39.0	34
39.1	29
39.2	37
39.3	35
39.4	31
39.5	34
39.6	34
39.7	37
39.8	34
39.9	32
40.0	33
40.1	40
40.2	35
40.3	32
40.4	33
40.5	37
40.6	41
40.7	38
40.8	31
40.9	34
41.0	40
41.1	36
41.2	34
41.3	32
41.4	38
41.5	43
41.6	29
41.7	34
41.8	37
41.9	35
42.0	33
42.1	35
42.2	34
42.3	39
42.4	34
42.5	41
42.6	42
42.7	38
42.8	36
42.9	34
43.0	33
43.1	38
43.2	23
43.3	37
43.4	41
43.5	41
43.6	33
43.7	41
43.8	34
43.9	35
44.0	40
44.1	38
44.2	38
44.3	30
44.4	31
44.5	39
44.6	35
44.7	37
44.8	41
44.9	36
45.0	31
45.1	26
45.2	33
45.3	32
45.4	38
45.5	36
45.6	32
45.7	36
45.8	36
45.9	37
46.0	33
46.1	31
46.2	35
46.3	29
46.4	36
46.5	29
46.6	34
46.7	32
46.8	37
46.9	33
47.0	36
47.1	33
47.2	33
47.3	39
47.4	31
47.5	37
47.6	40
47.7	29
47.8	34
47.9	32
48.0	38
48.1	36
48.2	41
48.3	35
48.4	38
48.5	29
48.6	33
48.7	31
48.8	29
48.9	29
49.0	40
49.1	36
49.2	37
49.3	36
49.4	35
49.5	31
49.6	29
49.7	26
49.8	35
49.9	38
50.0	28
50.1	28
50.2	40
50.3	26
50.4	34
50.5	30
50.6	37
50.7	38
50.8	30
50.9	34
51.0	33
51.1	39
51.2	32
51.3	34
51.4	29
51.5	30
51.6	26
51.7	38
51.8	34
51.9	33
52.0	37
52.1	36
52.2	32
52.3	46
52.4	37
52.5	40
52.6	34
52.7	45
52.8	88
52.9	112
53.0	71
53.1	43
53.2	40
53.3	44
53.4	37
53.5	37
53.6	33
53.7	30
53.8	39
53.9	36
54.0	41
54.1	40
54.2	30
54.3	34
54.4	29
54.5	34
54.6	28
54.7	34
54.8	31
54.9	46
55.0	35
55.1	32
55.2	32
55.3	34
55.4	33
55.5	33
55.6	35
55.7	35
55.8	33
55.9	33
56.0	33
56.1	36
56.2	36
56.3	24
56.4	29
56.5	35
56.6	43
56.7	42
56.8	36
56.9	29
57.0	33
57.1	29
57.2	31
57.3	41
57.4	32
57.5	38
57.6	38
57.7	39
57.8	34
57.9	41
58.0	34
58.1	36
58.2	33
58.3	40
58.4	34
58.5	34
58.6	33
58.7	43
58.8	36
58.9	32
59.0	39
59.1	30
59.2	33
59.3	36
59.4	39
59.5	34
59.6	29
59.7	35
59.8	37
59.9	36
60.0	40
60.1	35
60.2	39
60.3	40
60.4	36
60.5	39
60.6	34
60.7	36
60.8	35
60.9	40
61.0	42
61.1	46
61.2	34
61.3	75
61.4	209
61.5	270
61.6	228
61.7	192
61.8	100
61.9	54
62.0	44
62.1	41
62.2	39
62.3	33
62.4	37
62.5	36
62.6	27
62.7	36
62.8	33
62.9	38
63.0	41
63.1	34
63.2	30
63.3	38
63.4	35
63.5	33
63.6	36
63.7	33
63.8	36
63.9	38
64.0	35
64.1	30
64.2	39
64.3	35
64.4	31
64.5	35
64.6	42
64.7	36
64.8	38
64.9	37
65.0	37
65.1	37
65.2	30
65.3	36
65.4	35
65.5	34
65.6	47
65.7	36
65.8	37
65.9	32
66.0	43
66.1	35
66.2	35
66.3	38
66.4	41
66.5	38
66.6	35
66.7	32
66.8	35
66.9	37
67.0	33
67.1	34
67.2	28
67.3	34
67.4	32
67.5	32
67.6	37
67.7	32
67.8	34
67.9	31
68.0	33
68.1	36
68.2	38
68.3	34
68.4	39
68.5	38
68.6	37
68.7	30
68.8	33
68.9	32
69.0	41
69.1	34
69.2	24
69.3	24
69.4	32
69.5	36
69.6	31
69.7	32
69.8	34
69.9	30
70.0	34
70.1	31
70.2	34
70.3	41
70.4	41
70.5	31
70.6	35
70.7	35
70.8	36
70.9	38
71.0	32
71.1	36
71.2	32
71.3	33
71.4	38
71.5	25
71.6	36
71.7	35
71.8	36
71.9	46
72.0	31
72.1	36
72.2	36
72.3	36
72.4	31
72.5	36
72.6	32
72.7	35
72.8	41
72.9	42
73.0	37
73.1	35
73.2	39
73.3	37
73.4	28
73.5	36
73.6	28
73.7	39
73.8	36
73.9	41
74.0	33
74.1	27
74.2	37
74.3	26
74.4	31
74.5	28
74.6	30
74.7	33
74.8	35
74.9	29
75.0	35
